X Lag Time,Record 1: JJ1_10mg_AIR_050%v_200rpm_10-00min_PM_No3_230703 1,Record 2: JJ1_10mg_AIR_050%v_200rpm_10-00min_PM_No3_230703 2,Record 3: JJ1_10mg_AIR_050%v_200rpm_10-00min_PM_No3_230703 3,X Intensity,Record 1: JJ1_10mg_AIR_050%v_200rpm_10-00min_PM_No3_230703 1,Record 2: JJ1_10mg_AIR_050%v_200rpm_10-00min_PM_No3_230703 2,Record 3: JJ1_10mg_AIR_050%v_200rpm_10-00min_PM_No3_230703 3
0.5,0.847,0.858,0.855,0.4,0,0,0
1,0.847,0.857,0.85,0.463,0,0,0
1.5,0.839,0.848,0.842,0.536,0,0,0
2,0.832,0.841,0.833,0.621,0,0,0
2.5,0.823,0.834,0.827,0.719,0,0,0
3,0.817,0.828,0.822,0.833,0,0,0
3.5,0.809,0.821,0.814,0.965,0,0,0
4,0.804,0.815,0.808,1.12,0,0,0
4.5,0.797,0.81,0.802,1.29,0,0,0
5.5,0.787,0.796,0.789,1.5,0,0,0
6.5,0.775,0.785,0.779,1.74,0,0,0
7.5,0.763,0.772,0.767,2.01,0,0,0
8.5,0.752,0.763,0.755,2.33,0,0,0
9.5,0.742,0.752,0.744,2.7,0,0,0
10.5,0.733,0.741,0.732,3.12,0,0,0
11.5,0.722,0.731,0.723,3.62,0,0,0
12.5,0.713,0.723,0.712,4.19,0,0,0
14.5,0.696,0.705,0.694,4.85,0,0,0
16.5,0.678,0.686,0.676,5.61,0,0,0
18.5,0.664,0.671,0.659,6.5,0,0,0
20.5,0.647,0.656,0.643,7.53,0,0,0
22.5,0.633,0.641,0.628,8.72,0,0.195,0.531
24.5,0.62,0.627,0.615,10.1,2.58,2.82,3.65
26.5,0.608,0.615,0.6,11.7,7.2,6.33,7.27
28.5,0.597,0.603,0.588,13.5,10.1,8.37,9
32.5,0.575,0.58,0.566,15.7,8.87,7.66,7.93
36.5,0.555,0.561,0.545,18.2,4.5,4.74,4.89
40.5,0.537,0.543,0.527,21,0.555,1.54,1.7
44.5,0.521,0.526,0.51,24.4,0,0,0
48.5,0.506,0.512,0.494,28.2,0,0,0
52.5,0.494,0.499,0.482,32.7,0,0,0
56.5,0.48,0.486,0.469,37.8,0,0,0
60.5,0.47,0.476,0.458,43.8,0,0,0
68.5,0.451,0.456,0.439,50.7,0,0,0
76.5,0.436,0.44,0.423,58.8,0,0,0
84.5,0.422,0.427,0.409,68.1,0,0,0
92.5,0.411,0.415,0.396,78.8,0,0,0
101,0.401,0.405,0.386,91.3,0,0,0
109,0.392,0.396,0.378,106,0,0,0
117,0.386,0.388,0.37,122,0,0,0
125,0.379,0.382,0.363,142,0,0,0
141,0.368,0.37,0.351,164,0,0,0
157,0.359,0.361,0.342,190,0,0,0
173,0.35,0.354,0.334,220,0,0.204,0.269
189,0.343,0.346,0.326,255,0,1.23,1.09
205,0.337,0.339,0.319,295,1,2.84,2.46
221,0.331,0.333,0.313,342,3.5,4.52,4.14
237,0.325,0.327,0.307,396,6.64,5.81,5.8
253,0.32,0.322,0.302,459,9.29,6.48,7.11
285,0.31,0.312,0.291,531,10.6,6.46,7.83
317,0.3,0.302,0.28,615,10.4,5.9,7.83
349,0.291,0.292,0.271,712,8.68,4.99,7.14
381,0.282,0.282,0.262,825,6.15,3.97,5.92
413,0.273,0.274,0.254,955,3.51,3.03,4.4
445,0.265,0.267,0.246,1.11E+03,1.42,2.3,2.85
477,0.256,0.26,0.238,1.28E+03,0.27,1.84,1.52
509,0.248,0.252,0.231,1.48E+03,0,1.64,0.589
573,0.235,0.238,0.217,1.72E+03,0,1.66,0.112
637,0.22,0.227,0.206,1.99E+03,0,1.81,0
701,0.208,0.215,0.194,2.30E+03,0,2,0
765,0.196,0.203,0.182,2.67E+03,0,2.17,0
829,0.184,0.19,0.172,3.09E+03,0,2.24,0.162
893,0.174,0.18,0.163,3.58E+03,0.135,2.18,0.561
957,0.165,0.171,0.154,4.15E+03,0.662,2,1.15
1.02E+03,0.157,0.162,0.146,4.80E+03,1.52,1.71,1.79
1.15E+03,0.14,0.146,0.13,5.56E+03,2.43,1.35,2.31
1.28E+03,0.126,0.131,0.119,6.44E+03,0,0,0
1.40E+03,0.113,0.119,0.107,7.46E+03,0,0,0
1.53E+03,0.101,0.109,0.0971,8.63E+03,0,0,0
1.66E+03,0.092,0.101,0.0883,,,,
1.79E+03,0.0838,0.0931,0.0789,,,,
1.92E+03,0.0771,0.0858,0.0727,,,,
2.04E+03,0.0721,0.0787,0.0671,,,,
2.30E+03,0.0638,0.0689,0.0555,,,,
2.56E+03,0.0542,0.0602,0.046,,,,
2.81E+03,0.0476,0.0527,0.0404,,,,
3.07E+03,0.0408,0.0465,0.0352,,,,
3.32E+03,0.0359,0.0406,0.0319,,,,
3.58E+03,0.0318,0.0351,0.0293,,,,
3.84E+03,0.0295,0.0295,0.0283,,,,
4.09E+03,0.028,0.0254,0.0262,,,,
4.60E+03,0.0224,0.0196,0.0198,,,,
5.12E+03,0.0179,0.014,0.0165,,,,
5.63E+03,0.0136,0.0113,0.0169,,,,
6.14E+03,0.0102,0.00915,0.0154,,,,
6.65E+03,0.0102,0.00835,0.0125,,,,
7.16E+03,0.00941,0.0066,0.0101,,,,
7.68E+03,0.00972,0.00636,0.00774,,,,
8.19E+03,0.0087,0.00614,0.00708,,,,
9.21E+03,0.00945,0.00539,0.00659,,,,
1.02E+04,0.0104,0.00324,0.00629,,,,
1.13E+04,0.0106,0.00203,0.00489,,,,
1.23E+04,0.00812,0.00105,0.0065,,,,
1.33E+04,0.00644,0.00111,0.00436,,,,
1.43E+04,0.0049,0,0.00437,,,,
1.54E+04,0.00531,0.000131,0.00338,,,,
1.64E+04,0.00391,0.000634,0.00423,,,,
1.84E+04,0.00356,0.0048,0.00208,,,,
2.05E+04,0.00583,0.00307,0.00237,,,,
2.25E+04,0.00515,0.000408,0.00222,,,,
2.46E+04,0.00667,0.00163,0.00384,,,,
2.66E+04,0.00579,0.00157,0.00468,,,,
2.87E+04,0.00552,0.00275,0.00551,,,,
3.07E+04,0.00224,0.00267,0.00527,,,,
3.28E+04,0.00438,0.000884,0.00121,,,,
3.69E+04,0.00423,0.00401,0.000386,,,,
4.10E+04,0.00179,0.00447,0.00284,,,,
4.51E+04,0.00348,0.00744,0.00156,,,,
4.91E+04,0.00272,0.00211,0.00181,,,,
5.32E+04,0.00353,0.00252,0.00348,,,,
5.73E+04,0.0047,0.00174,0.00251,,,,
6.14E+04,0.00498,0.00381,0.00342,,,,
6.55E+04,0.00205,0.00254,0.00125,,,,
7.37E+04,0.00117,0.00392,0.000683,,,,
8.19E+04,0.000619,0.00269,0.00101,,,,
9.01E+04,0.00167,0.000983,0.000482,,,,
9.83E+04,0.00119,0.000748,0,,,,
1.06E+05,0.00302,0.000818,0.000317,,,,
1.15E+05,0.00241,0.00155,0.000727,,,,
1.23E+05,0.00223,0.0027,0.00137,,,,
1.31E+05,0.00389,0.000875,0.00132,,,,
1.47E+05,0.00626,0.00117,0.000297,,,,
1.64E+05,0.000749,0.000799,0.00426,,,,
1.80E+05,0.00165,0.00134,0.0043,,,,
1.97E+05,0.000846,0.00055,0.0023,,,,
2.13E+05,0.00218,0.000628,0.00339,,,,
2.29E+05,0.00142,0.000485,0.00171,,,,
2.46E+05,0.0022,0.00173,0.00146,,,,
2.62E+05,0.00247,0.00125,0.000717,,,,
2.95E+05,0.00149,0.00105,0.00103,,,,
3.28E+05,0.00172,0.0002,0.00191,,,,
3.60E+05,0.000832,0.00107,0.00155,,,,
3.93E+05,0.00113,0,0.00117,,,,
4.26E+05,0.000538,0.00209,0.0019,,,,
4.59E+05,0,0.000585,0.00138,,,,
4.92E+05,0,0.00185,0.00274,,,,
5.24E+05,0.000722,0.00265,0.000488,,,,
5.90E+05,0.00355,0.00179,0.00072,,,,
6.55E+05,0.00288,0.00237,0.000704,,,,
7.21E+05,0.00194,0.00333,0.000747,,,,
7.86E+05,0.0012,0.000874,0.000573,,,,
8.52E+05,0.00113,0.000455,0.00116,,,,
9.18E+05,0.00221,0.0022,0.00233,,,,
9.83E+05,0.0016,0.00195,0.000407,,,,
1.05E+06,0.00395,0,0.000352,,,,
1.18E+06,0.00242,0.000981,0.00243,,,,
1.31E+06,0.00356,0.000407,0.000782,,,,
1.44E+06,0.00187,0.000254,0.0015,,,,
1.57E+06,0.000971,0.000605,0.00123,,,,
1.70E+06,0.00268,0.000456,0.00131,,,,
1.84E+06,0.00346,0.00023,0.00149,,,,
1.97E+06,0.00605,0.00139,0.00146,,,,
2.10E+06,0,0,0,,,,
2.36E+06,0,0,0,,,,
2.62E+06,0,0,0,,,,
2.88E+06,0,0,0,,,,
3.15E+06,0,0,0,,,,
3.41E+06,0,0,0,,,,
3.67E+06,0,0,0,,,,
3.93E+06,0,0,0,,,,
4.19E+06,0,0,0,,,,
4.72E+06,0,0,0,,,,
5.24E+06,0,0,0,,,,
5.77E+06,0,0,0,,,,
6.29E+06,0,0,0,,,,
6.82E+06,0,0,0,,,,
7.34E+06,0,0,0,,,,
7.86E+06,0,0,0,,,,
8.39E+06,0,0,0,,,,
9.44E+06,0,0,0,,,,
1.05E+07,0,0,0,,,,
1.15E+07,0,0,0,,,,
1.26E+07,0,0,0,,,,
1.36E+07,0,0,0,,,,
1.47E+07,0,0,0,,,,
1.57E+07,0,0,0,,,,
1.68E+07,0,0,0,,,,
1.89E+07,0,0,0,,,,
2.10E+07,0,0,0,,,,
2.31E+07,0,0,0,,,,
2.52E+07,0,0,0,,,,
2.73E+07,0,0,0,,,,
2.94E+07,0,0,0,,,,
3.15E+07,0,0,0,,,,
3.36E+07,0,0,0,,,,
3.77E+07,0,0,0,,,,
4.19E+07,0,0,0,,,,
4.61E+07,0,0,0,,,,
5.03E+07,0,0,0,,,,
5.45E+07,0,0,0,,,,
5.87E+07,0,0,0,,,,