X Lag Time,Record 1: JJ1_01mg_PO1_100ug_200rpm_10-00min_PM_230613 1,Record 2: JJ1_01mg_PO1_100ug_200rpm_10-00min_PM_230613 2,Record 3: JJ1_01mg_PO1_100ug_200rpm_10-00min_PM_230613 3,X Intensity,Record 1: JJ1_01mg_PO1_100ug_200rpm_10-00min_PM_230613 1,Record 2: JJ1_01mg_PO1_100ug_200rpm_10-00min_PM_230613 2,Record 3: JJ1_01mg_PO1_100ug_200rpm_10-00min_PM_230613 3
0.5,0.754,0.759,0.782,0.4,0,0,0
1,0.725,0.729,0.75,0.463,0,0,0
1.5,0.696,0.701,0.719,0.536,0,0,0
2,0.674,0.67,0.702,0.621,0.152,0,0
2.5,0.646,0.651,0.674,0.719,0.526,0,0
3,0.627,0.624,0.65,0.833,0.99,0,0
3.5,0.611,0.614,0.635,0.965,1.33,0,0
4,0.587,0.589,0.621,1.12,1.4,0,0
4.5,0.572,0.577,0.603,1.29,1.14,0,0
5.5,0.542,0.551,0.572,1.5,0.668,0,0.731
6.5,0.514,0.515,0.538,1.74,0.219,0,1.8
7.5,0.488,0.488,0.511,2.01,0,0,2.31
8.5,0.462,0.464,0.483,2.33,0,0,1.89
9.5,0.439,0.447,0.46,2.7,0,0,0.916
10.5,0.419,0.422,0.441,3.12,0,0,0.134
11.5,0.399,0.402,0.417,3.62,0,0,0
12.5,0.38,0.386,0.402,4.19,0,0,0
14.5,0.345,0.348,0.365,4.85,0,0,0
16.5,0.313,0.315,0.334,5.61,0.119,0.42,0
18.5,0.287,0.288,0.305,6.5,1.19,1.76,0.295
20.5,0.263,0.263,0.282,7.53,3.31,4.02,1.81
22.5,0.24,0.24,0.257,8.72,6.14,6.84,4.5
24.5,0.217,0.216,0.237,10.1,9.07,9.68,7.76
26.5,0.199,0.199,0.216,11.7,11.5,12,10.8
28.5,0.182,0.182,0.198,13.5,12.9,13.3,12.9
32.5,0.151,0.152,0.167,15.7,13.1,13.4,13.7
36.5,0.129,0.126,0.14,18.2,12,12.4,12.9
40.5,0.108,0.105,0.12,21,9.89,10.3,10.9
44.5,0.0911,0.0897,0.102,24.4,7.2,7.63,8.13
48.5,0.0768,0.0759,0.0872,28.2,4.43,4.87,5.15
52.5,0.0619,0.0641,0.0739,32.7,2.12,2.48,2.55
56.5,0.0534,0.056,0.0647,37.8,0.606,0.837,0.79
60.5,0.0456,0.0468,0.0551,43.8,0,0.0717,0.0193
68.5,0.0344,0.0337,0.0424,50.7,0,0,0
76.5,0.0253,0.0248,0.0309,58.8,0,0,0
84.5,0.0197,0.0185,0.0256,68.1,0,0,0
92.5,0.0145,0.0156,0.0194,78.8,0,0,0
101,0.0111,0.0111,0.0156,91.3,0,0,0
109,0.00898,0.00951,0.0143,106,0,0,0
117,0.00774,0.00893,0.0106,122,0,0,0
125,0.00741,0.00743,0.00937,142,0,0,0
141,0.00487,0.00566,0.00619,164,0,0,0
157,0.00336,0.00408,0.0052,190,0,0,0
173,0.00257,0.00245,0.00469,220,0,0,0
189,0.00148,0.00182,0.00372,255,0,0,0
205,0.00217,0.00151,0.00226,295,0,0,0
221,0.00268,0.00163,0.00273,342,0,0,0
237,0.0029,0.00101,0.00394,396,0,0,0
253,0.00295,0.00148,0.00367,459,0,0,0
285,0.0017,0.000241,0.00322,531,0,0,0
317,0.00129,0.000582,0.00161,615,0,0,0
349,0.000471,0.00058,0.00123,712,0,0,0
381,0.00101,0.00151,0.000508,825,0,0,0
413,0.000833,0.00198,0.00129,955,0,0,0
445,0.00119,0.000944,0.0015,1.11E+03,0,0,0
477,0.000909,0.000689,0.00217,1.28E+03,0,0,0
509,0.00137,0.000415,0.00174,1.48E+03,0,0,0
573,0.00118,0.000757,0.00142,1.72E+03,0,0,0
637,0.00117,0.000418,0.000558,1.99E+03,0,0,0
701,0.000775,3.78E-05,0.000429,2.30E+03,0,0,0
765,0.000369,0.00032,0.000553,2.67E+03,0,0,0
829,0.00101,0.000646,0.00163,3.09E+03,0,0,0
893,0.000881,0.000115,0.00183,3.58E+03,0,0,0
957,0.000502,0.000718,0.000788,4.15E+03,0,0,0
1.02E+03,0.000498,0.000536,0.00104,4.80E+03,0,0,0
1.15E+03,0.000697,0.000587,0.00182,5.56E+03,0,0,0
1.28E+03,0.000917,0.000211,0.00104,6.44E+03,0,0,0
1.40E+03,4.57E-06,0.00034,0.00144,7.46E+03,0,0,0
1.53E+03,0.000763,0.000765,0.000604,8.63E+03,0,0,0
1.66E+03,0.000803,0.00116,0.000786,,,,
1.79E+03,0.000378,0.000577,0.000161,,,,
1.92E+03,0.000831,0.000463,0.000454,,,,
2.04E+03,0.000613,0.000625,0.000377,,,,
2.30E+03,0.000394,0.00081,0.000361,,,,
2.56E+03,2.64E-06,0.000629,0.000246,,,,
2.81E+03,0.000817,0.000103,0.000691,,,,
3.07E+03,0.000392,0.000454,0.00123,,,,
3.32E+03,0.000215,3.16E-05,0.000658,,,,
3.58E+03,0.0015,0.000167,0.0012,,,,
3.84E+03,0.000498,0.000294,0.000725,,,,
4.09E+03,0.000526,0.000527,0.00036,,,,
4.60E+03,0.000326,0.00018,0.000281,,,,
5.12E+03,2.86E-05,0.000746,0.000611,,,,
5.63E+03,0.000409,0.000377,0.000376,,,,
6.14E+03,0.000451,0.000369,0.00018,,,,
6.65E+03,0.000271,0.000538,0.00037,,,,
7.16E+03,0.00071,0.000183,0.000452,,,,
7.68E+03,0.000338,0.000361,1.68E-05,,,,
8.19E+03,0.000665,7.78E-05,0.000415,,,,
9.21E+03,0.000437,0.000346,0.000195,,,,
1.02E+04,0.000174,0.000538,0.000152,,,,
1.13E+04,0.000208,7.13E-05,0.000314,,,,
1.23E+04,0.000619,0.000242,0.000506,,,,
1.33E+04,0.0001,0.000267,0.000437,,,,
1.43E+04,0.000383,0.000139,4.14E-05,,,,
1.54E+04,0.0003,0.000314,0.000414,,,,
1.64E+04,0.000323,0.000152,0.000231,,,,
1.84E+04,0.000474,0.000197,0.000297,,,,
2.05E+04,9.84E-05,0.000161,0.000236,,,,
2.25E+04,9.53E-05,8.34E-05,0.000456,,,,
2.46E+04,0.000255,0.000153,0.000161,,,,
2.66E+04,0.000326,9.16E-05,0.000218,,,,
2.87E+04,0.000343,0.000334,0.000262,,,,
3.07E+04,0.000292,0.000233,0.000372,,,,
3.28E+04,9.55E-05,0.000112,8.47E-05,,,,
3.69E+04,9.65E-05,9.28E-05,0.000199,,,,
4.10E+04,0.000136,0.000114,0.000158,,,,
4.51E+04,5.37E-05,0.000176,0.000181,,,,
4.91E+04,0.000225,0.000148,0.000123,,,,
5.32E+04,0.00019,0.000109,0.000316,,,,
5.73E+04,0.000121,0.000175,0.00012,,,,
6.14E+04,8.43E-05,9.78E-05,0.000223,,,,
6.55E+04,4.10E-05,0.000111,0.000153,,,,
7.37E+04,0.000193,8.50E-05,3.97E-05,,,,
8.19E+04,0.000159,8.71E-05,7.33E-07,,,,
9.01E+04,3.60E-05,8.06E-05,0.000332,,,,
9.83E+04,0.000217,0.000125,0.000108,,,,
1.06E+05,0.000172,0.00017,0.000178,,,,
1.15E+05,0.000223,0.000231,9.13E-05,,,,
1.23E+05,0.000134,0.000267,3.77E-05,,,,
1.31E+05,0.000216,0.000231,0.000198,,,,
1.47E+05,8.58E-05,5.90E-05,0.000109,,,,
1.64E+05,1.23E-06,8.49E-05,0.000181,,,,
1.80E+05,0.000133,0.000239,0.000111,,,,
1.97E+05,0.00027,0.000208,2.69E-05,,,,
2.13E+05,0.000226,0.000139,0,,,,
2.29E+05,0.000231,0.000174,7.93E-05,,,,
2.46E+05,0.000149,9.37E-05,0.000126,,,,
2.62E+05,9.74E-05,9.08E-06,0.000101,,,,
2.95E+05,0.000102,0.00028,5.09E-05,,,,
3.28E+05,0.000186,0.000138,0.000118,,,,
3.60E+05,0.000132,0.000102,0.000173,,,,
3.93E+05,0.000307,9.39E-05,4.02E-05,,,,
4.26E+05,8.60E-05,0.00012,0.000189,,,,
4.59E+05,6.97E-05,0.000119,0,,,,
4.92E+05,5.72E-05,0.000254,0.00018,,,,
5.24E+05,0.000541,0,0.00039,,,,
5.90E+05,0.00036,0.000145,0.000285,,,,
6.55E+05,0.000253,0,0.000496,,,,
7.21E+05,0.000422,0,0.00024,,,,
7.86E+05,0.000213,0.000124,0.000545,,,,
8.52E+05,0.000252,0.000188,0.000534,,,,
9.18E+05,0.000442,0.000153,0.00031,,,,
9.83E+05,0.000101,8.56E-05,0.000869,,,,
1.05E+06,0.000322,0.000886,0.000316,,,,
1.18E+06,0.000592,0.000429,0.000241,,,,
1.31E+06,0.000799,0.000346,2.75E-05,,,,
1.44E+06,0.000714,0.000369,0.00073,,,,
1.57E+06,0.000354,0.000275,0.000421,,,,
1.70E+06,0.000318,0.000285,0.000357,,,,
1.84E+06,0.000476,0.000238,0.000204,,,,
1.97E+06,0.000485,6.53E-05,0.000492,,,,
2.10E+06,0,0,0,,,,
2.36E+06,0,0,0,,,,
2.62E+06,0,0,0,,,,
2.88E+06,0,0,0,,,,
3.15E+06,0,0,0,,,,
3.41E+06,0,0,0,,,,
3.67E+06,0,0,0,,,,
3.93E+06,0,0,0,,,,
4.19E+06,0,0,0,,,,
4.72E+06,0,0,0,,,,
5.24E+06,0,0,0,,,,
5.77E+06,0,0,0,,,,
6.29E+06,0,0,0,,,,
6.82E+06,0,0,0,,,,
7.34E+06,0,0,0,,,,
7.86E+06,0,0,0,,,,
8.39E+06,0,0,0,,,,
9.44E+06,0,0,0,,,,
1.05E+07,0,0,0,,,,
1.15E+07,0,0,0,,,,
1.26E+07,0,0,0,,,,
1.36E+07,0,0,0,,,,
1.47E+07,0,0,0,,,,
1.57E+07,0,0,0,,,,
1.68E+07,0,0,0,,,,
1.89E+07,0,0,0,,,,
2.10E+07,0,0,0,,,,
2.31E+07,0,0,0,,,,
2.52E+07,0,0,0,,,,
2.73E+07,0,0,0,,,,
2.94E+07,0,0,0,,,,
3.15E+07,0,0,0,,,,
3.36E+07,0,0,0,,,,
3.77E+07,0,0,0,,,,
4.19E+07,0,0,0,,,,
4.61E+07,0,0,0,,,,
5.03E+07,0,0,0,,,,
5.45E+07,0,0,0,,,,
5.87E+07,0,0,0,,,,