X Lag Time,Record 1: JJ1_01mg_PS2_050ug_200rpm_10-00min_PM_No1_230613 1,Record 2: JJ1_01mg_PS2_050ug_200rpm_10-00min_PM_No1_230613 2,Record 3: JJ1_01mg_PS2_050ug_200rpm_10-00min_PM_No1_230613 3,X Intensity,Record 1: JJ1_01mg_PS2_050ug_200rpm_10-00min_PM_No1_230613 1,Record 2: JJ1_01mg_PS2_050ug_200rpm_10-00min_PM_No1_230613 2,Record 3: JJ1_01mg_PS2_050ug_200rpm_10-00min_PM_No1_230613 3
0.5,0.759,0.804,0.811,0.4,0,0,0
1,0.737,0.77,0.792,0.463,0,0,0
1.5,0.72,0.754,0.768,0.536,0,0,0
2,0.702,0.737,0.746,0.621,0,0,0
2.5,0.691,0.723,0.726,0.719,0,0,0
3,0.675,0.706,0.708,0.833,0,0,0
3.5,0.661,0.688,0.7,0.965,0,0,0
4,0.647,0.672,0.678,1.12,0,0,0
4.5,0.636,0.66,0.666,1.29,0,0,0
5.5,0.612,0.635,0.642,1.5,0,0,0
6.5,0.588,0.612,0.615,1.74,0,0,0
7.5,0.573,0.588,0.594,2.01,0,0,0
8.5,0.554,0.566,0.571,2.33,0,0,0
9.5,0.534,0.546,0.553,2.7,0,0,0
10.5,0.517,0.53,0.534,3.12,0,0,0
11.5,0.505,0.512,0.515,3.62,0,0,0
12.5,0.489,0.495,0.499,4.19,0,0,0
14.5,0.461,0.464,0.467,4.85,0,0,0
16.5,0.436,0.436,0.439,5.61,0,0,0
18.5,0.41,0.41,0.412,6.5,0,0,0
20.5,0.389,0.386,0.389,7.53,1.31,1.09,1.2
22.5,0.369,0.363,0.367,8.72,4.33,4.18,4.3
24.5,0.35,0.341,0.344,10.1,8.07,8.27,8.33
26.5,0.333,0.326,0.324,11.7,11.1,11.8,11.8
28.5,0.317,0.307,0.308,13.5,12.3,13.4,13.4
32.5,0.289,0.276,0.277,15.7,11.4,12.6,12.7
36.5,0.262,0.248,0.248,18.2,8.71,9.85,9.98
40.5,0.242,0.224,0.225,21,5.23,6.12,6.31
44.5,0.223,0.205,0.205,24.4,2.15,2.7,2.87
48.5,0.206,0.188,0.186,28.2,0.362,0.58,0.669
52.5,0.192,0.172,0.172,32.7,0,0,0
56.5,0.179,0.16,0.157,37.8,0,0,0
60.5,0.168,0.148,0.147,43.8,0,0,0
68.5,0.15,0.129,0.128,50.7,0,0,0
76.5,0.135,0.115,0.113,58.8,0,0,0
84.5,0.123,0.103,0.102,68.1,0,0,0
92.5,0.113,0.0926,0.0919,78.8,0,0,0
101,0.105,0.0855,0.0845,91.3,0,0,0
109,0.0975,0.0799,0.0782,106,0,0,0
117,0.0937,0.0739,0.073,122,0,0,0
125,0.0894,0.0698,0.0689,142,0.00703,0.134,0.164
141,0.082,0.0627,0.0619,164,0.426,0.66,0.7
157,0.0764,0.058,0.0568,190,1.29,1.53,1.54
173,0.0729,0.0541,0.0523,220,2.42,2.56,2.51
189,0.0692,0.0512,0.0492,255,3.55,3.48,3.37
205,0.0666,0.0483,0.0466,295,4.45,4.11,3.94
221,0.0629,0.0442,0.0447,342,4.93,4.32,4.11
237,0.0616,0.0423,0.0421,396,4.92,4.07,3.87
253,0.0591,0.0411,0.0408,459,4.44,3.43,3.27
285,0.0526,0.0383,0.0375,531,3.59,2.55,2.45
317,0.0491,0.0348,0.0344,615,2.56,1.61,1.57
349,0.0464,0.0327,0.0317,712,1.54,0.786,0.802
381,0.0449,0.0307,0.0289,825,0.71,0.234,0.266
413,0.0427,0.028,0.0267,955,0.192,0,0.0182
445,0.0396,0.0261,0.0261,1.11E+03,0,0,0
477,0.0369,0.0238,0.0218,1.28E+03,0,0,0
509,0.0342,0.0224,0.0211,1.48E+03,0,0,0
573,0.0314,0.0204,0.0193,1.72E+03,0,0,0
637,0.0271,0.0165,0.0159,1.99E+03,0,0,0
701,0.0239,0.013,0.0136,2.30E+03,0,0,0
765,0.022,0.012,0.0134,2.67E+03,0,0,0
829,0.0198,0.0113,0.0128,3.09E+03,0,0,0
893,0.0172,0.00986,0.0104,3.58E+03,0,0,0
957,0.0153,0.00682,0.00894,4.15E+03,0,0,0
1.02E+03,0.0143,0.00656,0.00946,4.80E+03,0,0,0
1.15E+03,0.0112,0.00508,0.00693,5.56E+03,0,0,0
1.28E+03,0.00896,0.00484,0.00786,6.44E+03,0,0,0
1.40E+03,0.00652,0.00296,0.00538,7.46E+03,0,0,0
1.53E+03,0.00533,0.00275,0.00462,8.63E+03,0,0,0
1.66E+03,0.00512,0.00171,0.00495,,,,
1.79E+03,0.00311,0.0019,0.00517,,,,
1.92E+03,0.00421,0.00238,0.00261,,,,
2.04E+03,0.00323,0.00161,0.00394,,,,
2.30E+03,0.00286,0.00161,0.00356,,,,
2.56E+03,0.0031,0.00121,0.00253,,,,
2.81E+03,0.00251,0.00142,0.0026,,,,
3.07E+03,0.00285,0.000887,0.00156,,,,
3.32E+03,0.00207,0.00114,0.0013,,,,
3.58E+03,0.00235,0.00149,0.0017,,,,
3.84E+03,0.00101,0.000399,0.00208,,,,
4.09E+03,0.00159,0.000655,0.00284,,,,
4.60E+03,0.00257,0.000187,0.00194,,,,
5.12E+03,0.00285,0.00121,0.00112,,,,
5.63E+03,0.00213,0.00172,0.00229,,,,
6.14E+03,0.00226,0.00125,0.00185,,,,
6.65E+03,0.00239,4.23E-05,0.00297,,,,
7.16E+03,0.00203,0.00104,0.0031,,,,
7.68E+03,0.0018,0.000957,0.00138,,,,
8.19E+03,0.000772,0.00101,0.00143,,,,
9.21E+03,0.00114,0.00118,0.00168,,,,
1.02E+04,0.00173,0.000919,0.00224,,,,
1.13E+04,0.00198,0.000687,0.00205,,,,
1.23E+04,0.00165,0.00203,0.00179,,,,
1.33E+04,0.00251,0.00071,0.00292,,,,
1.43E+04,0.00249,0.000451,0.00225,,,,
1.54E+04,0.00224,0.000758,0.00356,,,,
1.64E+04,0.00179,0.000678,0.00245,,,,
1.84E+04,0.00159,0.000614,0.00226,,,,
2.05E+04,0.00184,0.000164,0.00223,,,,
2.25E+04,0.00167,0.00072,0.00183,,,,
2.46E+04,0.00139,0.000939,0.00262,,,,
2.66E+04,0.00151,0.00159,0.00162,,,,
2.87E+04,0.000768,0.00142,0.00262,,,,
3.07E+04,0.00147,0.00107,0.0025,,,,
3.28E+04,0.00183,0.000211,0.00179,,,,
3.69E+04,0.00178,0.00104,0.00174,,,,
4.10E+04,0.00126,0.000474,0.00222,,,,
4.51E+04,0.00127,0.000983,0.00263,,,,
4.91E+04,0.00197,0.00107,0.00156,,,,
5.32E+04,0.00177,0.000703,0.00244,,,,
5.73E+04,0.0016,0.00114,0.00212,,,,
6.14E+04,0.00128,0.000763,0.00197,,,,
6.55E+04,0.00176,0.000683,0.00178,,,,
7.37E+04,0.0015,0.000455,0.00166,,,,
8.19E+04,0.00115,0.000573,0.00172,,,,
9.01E+04,0.00141,0.00048,0.00188,,,,
9.83E+04,0.00154,0.000936,0.00127,,,,
1.06E+05,0.00103,0.00134,0.00163,,,,
1.15E+05,0.00113,0.000496,0.00148,,,,
1.23E+05,0.00108,0.000388,0.00132,,,,
1.31E+05,0.000969,0.000431,0.00179,,,,
1.47E+05,0.000717,0.000252,0.00159,,,,
1.64E+05,0.00048,0.000266,0.00162,,,,
1.80E+05,0.00163,0.000281,0.002,,,,
1.97E+05,0.00103,0.000318,0.00143,,,,
2.13E+05,0.000684,0.000408,0.00173,,,,
2.29E+05,0.00063,0.000538,0.00127,,,,
2.46E+05,0.000648,0.000554,0.00147,,,,
2.62E+05,0.000917,0.000294,0.00125,,,,
2.95E+05,0.0014,0.000448,0.00119,,,,
3.28E+05,0.00132,0.000334,0.000996,,,,
3.60E+05,0.0014,0.000316,0.00119,,,,
3.93E+05,0.00117,0.000541,0.000862,,,,
4.26E+05,0.00142,0.000421,0.000934,,,,
4.59E+05,0.00135,0.000289,0.00118,,,,
4.92E+05,0.00162,0.000428,0.000682,,,,
5.24E+05,0.00123,0.000478,0.000705,,,,
5.90E+05,0.000759,0.000489,0.000393,,,,
6.55E+05,0.000767,0.00061,0.000412,,,,
7.21E+05,0.000811,0.000425,0.000343,,,,
7.86E+05,0.00112,0.000552,0.000605,,,,
8.52E+05,0.00075,0.00036,0.000218,,,,
9.18E+05,0.000395,0.000487,0.000132,,,,
9.83E+05,0.000262,0.00054,0.000327,,,,
1.05E+06,0.000245,0.000132,7.14E-05,,,,
1.18E+06,0.000849,0.000739,0.000474,,,,
1.31E+06,0.0011,0.00067,0.000566,,,,
1.44E+06,9.81E-05,0.000668,0.000192,,,,
1.57E+06,0.00028,0.000704,0.000665,,,,
1.70E+06,0.00106,0.000512,0.000523,,,,
1.84E+06,0.00127,0.000678,0.0013,,,,
1.97E+06,0.00082,0.00172,0.000552,,,,
2.10E+06,0,0,0,,,,
2.36E+06,0,0,0,,,,
2.62E+06,0,0,0,,,,
2.88E+06,0,0,0,,,,
3.15E+06,0,0,0,,,,
3.41E+06,0,0,0,,,,
3.67E+06,0,0,0,,,,
3.93E+06,0,0,0,,,,
4.19E+06,0,0,0,,,,
4.72E+06,0,0,0,,,,
5.24E+06,0,0,0,,,,
5.77E+06,0,0,0,,,,
6.29E+06,0,0,0,,,,
6.82E+06,0,0,0,,,,
7.34E+06,0,0,0,,,,
7.86E+06,0,0,0,,,,
8.39E+06,0,0,0,,,,
9.44E+06,0,0,0,,,,
1.05E+07,0,0,0,,,,
1.15E+07,0,0,0,,,,
1.26E+07,0,0,0,,,,
1.36E+07,0,0,0,,,,
1.47E+07,0,0,0,,,,
1.57E+07,0,0,0,,,,
1.68E+07,0,0,0,,,,
1.89E+07,0,0,0,,,,
2.10E+07,0,0,0,,,,
2.31E+07,0,0,0,,,,
2.52E+07,0,0,0,,,,
2.73E+07,0,0,0,,,,
2.94E+07,0,0,0,,,,
3.15E+07,0,0,0,,,,
3.36E+07,0,0,0,,,,
3.77E+07,0,0,0,,,,
4.19E+07,0,0,0,,,,
4.61E+07,0,0,0,,,,
5.03E+07,0,0,0,,,,
5.45E+07,0,0,0,,,,
5.87E+07,0,0,0,,,,