X Lag Time,Record 1: JJ1_01mg_PS8_500ug_200rpm_10-00min_PM_No1 1,Record 2: JJ1_01mg_PS8_500ug_200rpm_10-00min_PM_No1 2,Record 3: JJ1_01mg_PS8_500ug_200rpm_10-00min_PM_No1 3,X Intensity,Record 1: JJ1_01mg_PS8_500ug_200rpm_10-00min_PM_No1 1,Record 2: JJ1_01mg_PS8_500ug_200rpm_10-00min_PM_No1 2,Record 3: JJ1_01mg_PS8_500ug_200rpm_10-00min_PM_No1 3
0.5,0.778,0.779,0.763,0.4,0,0,0
1,0.767,0.759,0.75,0.463,0,0,0
1.5,0.746,0.739,0.735,0.536,0,0,0
2,0.734,0.727,0.721,0.621,0,0,0
2.5,0.723,0.71,0.703,0.719,0,0,0
3,0.71,0.701,0.693,0.833,0,0,0
3.5,0.698,0.685,0.68,0.965,0,0,0
4,0.686,0.674,0.665,1.12,0,0,0
4.5,0.677,0.664,0.655,1.29,0,0,0
5.5,0.657,0.641,0.635,1.5,0,0,0
6.5,0.638,0.62,0.617,1.74,0,0,0
7.5,0.623,0.601,0.598,2.01,0,0,0
8.5,0.604,0.585,0.582,2.33,0,0,0
9.5,0.589,0.567,0.564,2.7,0,0,0
10.5,0.575,0.551,0.55,3.12,0,0,0
11.5,0.562,0.536,0.538,3.62,0,0,0
12.5,0.55,0.523,0.523,4.19,0,0,0
14.5,0.523,0.497,0.496,4.85,0,0,0
16.5,0.498,0.473,0.473,5.61,0,0,0
18.5,0.478,0.449,0.448,6.5,0,0,0
20.5,0.459,0.427,0.428,7.53,1.22,0.596,0.88
22.5,0.439,0.409,0.411,8.72,4.09,3.6,3.54
24.5,0.421,0.389,0.393,10.1,7.54,7.87,7.13
26.5,0.405,0.371,0.377,11.7,10.2,11.4,10.2
28.5,0.391,0.357,0.361,13.5,11,12.6,11.5
32.5,0.364,0.327,0.334,15.7,9.67,11.2,10.6
36.5,0.339,0.301,0.31,18.2,6.88,7.74,7.8
40.5,0.319,0.281,0.288,21,3.64,3.83,4.31
44.5,0.301,0.262,0.27,24.4,1.11,1,1.4
48.5,0.284,0.245,0.252,28.2,0,0,0
52.5,0.271,0.231,0.238,32.7,0,0,0
56.5,0.258,0.22,0.226,37.8,0,0,0
60.5,0.247,0.207,0.215,43.8,0,0,0
68.5,0.227,0.187,0.195,50.7,0,0,0
76.5,0.211,0.171,0.18,58.8,0,0,0
84.5,0.199,0.16,0.167,68.1,0,0,0
92.5,0.188,0.149,0.157,78.8,0,0,0
101,0.18,0.141,0.149,91.3,0,0,0
109,0.172,0.134,0.142,106,0,0,0
117,0.167,0.128,0.135,122,0,0,0
125,0.161,0.124,0.13,142,0,0.362,0
141,0.153,0.115,0.122,164,0.271,1.27,0.104
157,0.146,0.107,0.115,190,1.03,2.56,0.771
173,0.14,0.102,0.11,220,2.21,3.9,1.98
189,0.135,0.0979,0.107,255,3.56,4.98,3.45
205,0.131,0.0933,0.102,295,4.81,5.57,4.84
221,0.126,0.0896,0.0988,342,5.69,5.57,5.84
237,0.123,0.0868,0.0963,396,6.04,5,6.24
253,0.119,0.0843,0.0932,459,5.8,4.01,5.98
285,0.113,0.079,0.0864,531,5.03,2.82,5.14
317,0.108,0.0739,0.0809,615,3.9,1.66,3.92
349,0.104,0.0687,0.0762,712,2.62,0.737,2.56
381,0.0987,0.065,0.0744,825,1.44,0.187,1.34
413,0.0942,0.0613,0.0711,955,0.567,0,0.471
445,0.0903,0.0573,0.0671,1.11E+03,0.102,0,0.0508
477,0.0863,0.0547,0.0627,1.28E+03,0,0,0
509,0.0826,0.0517,0.0592,1.48E+03,0,0,0
573,0.0752,0.0467,0.0539,1.72E+03,0,0,0
637,0.0689,0.042,0.0492,1.99E+03,0,0,0
701,0.0636,0.0377,0.0442,2.30E+03,0,0,0
765,0.0575,0.0328,0.0409,2.67E+03,0,0,0
829,0.0554,0.0296,0.037,3.09E+03,0,0,0
893,0.0511,0.0286,0.033,3.58E+03,0,0.0273,0
957,0.0477,0.0248,0.0309,4.15E+03,0.144,0.192,0
1.02E+03,0.0438,0.0215,0.0282,4.80E+03,0.516,0.484,0
1.15E+03,0.0387,0.0183,0.0231,5.56E+03,1.02,0.811,0
1.28E+03,0.0337,0.0147,0.0189,6.44E+03,0,0,0
1.40E+03,0.0291,0.0139,0.0163,7.46E+03,0,0,0
1.53E+03,0.0249,0.0113,0.0133,8.63E+03,0,0,0
1.66E+03,0.0214,0.0104,0.011,,,,
1.79E+03,0.02,0.0102,0.00977,,,,
1.92E+03,0.0176,0.00814,0.0089,,,,
2.04E+03,0.015,0.00641,0.00833,,,,
2.30E+03,0.0112,0.00735,0.0073,,,,
2.56E+03,0.00773,0.00733,0.0069,,,,
2.81E+03,0.00657,0.00634,0.00609,,,,
3.07E+03,0.00585,0.00495,0.00694,,,,
3.32E+03,0.0044,0.00472,0.00689,,,,
3.58E+03,0.00563,0.00486,0.00725,,,,
3.84E+03,0.00365,0.00525,0.00598,,,,
4.09E+03,0.00373,0.00458,0.00655,,,,
4.60E+03,0.00396,0.00377,0.00581,,,,
5.12E+03,0.0044,0.00288,0.00449,,,,
5.63E+03,0.00591,0.00143,0.00579,,,,
6.14E+03,0.0055,0.00204,0.00611,,,,
6.65E+03,0.00662,0.00204,0.00716,,,,
7.16E+03,0.00628,0.00199,0.00477,,,,
7.68E+03,0.00499,0.00176,0.00466,,,,
8.19E+03,0.00581,0.00198,0.00435,,,,
9.21E+03,0.00578,0.00207,0.0045,,,,
1.02E+04,0.00478,0.00319,0.00467,,,,
1.13E+04,0.00451,0.0048,0.00591,,,,
1.23E+04,0.00549,0.00204,0.00441,,,,
1.33E+04,0.00526,0.00231,0.00512,,,,
1.43E+04,0.00304,0.00159,0.00548,,,,
1.54E+04,0.00198,0.00131,0.00614,,,,
1.64E+04,0.00275,0.00146,0.00643,,,,
1.84E+04,0.00288,0.00235,0.00633,,,,
2.05E+04,0.00506,0.00286,0.00577,,,,
2.25E+04,0.00683,0.00353,0.00457,,,,
2.46E+04,0.00323,0.0042,0.00511,,,,
2.66E+04,0.00205,0.00329,0.00372,,,,
2.87E+04,0.00504,0.00253,0.00583,,,,
3.07E+04,0.00614,0.00238,0.00523,,,,
3.28E+04,0.0053,0.00272,0.00481,,,,
3.69E+04,0.00445,0.00195,0.00483,,,,
4.10E+04,0.00329,0.0019,0.00555,,,,
4.51E+04,0.0032,0.00149,0.00475,,,,
4.91E+04,0.00361,0.0021,0.00438,,,,
5.32E+04,0.00376,0.00256,0.00508,,,,
5.73E+04,0.00343,0.00313,0.00413,,,,
6.14E+04,0.00177,0.00156,0.00466,,,,
6.55E+04,0.00329,0.00234,0.00477,,,,
7.37E+04,0.00259,0.00194,0.00417,,,,
8.19E+04,0.00322,0.00127,0.0046,,,,
9.01E+04,0.00336,0.00178,0.00458,,,,
9.83E+04,0.00382,0.00172,0.00434,,,,
1.06E+05,0.00261,0.00113,0.00421,,,,
1.15E+05,0.00258,0.00125,0.00441,,,,
1.23E+05,0.00334,0.0021,0.00404,,,,
1.31E+05,0.00253,0.00117,0.00469,,,,
1.47E+05,0.00266,0.000652,0.00381,,,,
1.64E+05,0.00164,0.00091,0.00427,,,,
1.80E+05,0.00168,0.00111,0.00427,,,,
1.97E+05,0.00104,0.00134,0.00449,,,,
2.13E+05,0.00156,0.000993,0.00369,,,,
2.29E+05,0.00156,0.000993,0.00364,,,,
2.46E+05,0.00174,0.000482,0.00354,,,,
2.62E+05,0.00166,0.000715,0.00298,,,,
2.95E+05,0.00151,0.000416,0.00247,,,,
3.28E+05,0.000744,0.000124,0.00207,,,,
3.60E+05,0.00138,0.000189,0.00147,,,,
3.93E+05,0.0017,6.79E-05,0.0019,,,,
4.26E+05,0.00189,0.000421,0.00227,,,,
4.59E+05,0.00165,0.000396,0.00146,,,,
4.92E+05,0.00126,0.000427,0.00226,,,,
5.24E+05,0.00301,0.00133,0.000755,,,,
5.90E+05,0.00161,0.000664,0.000931,,,,
6.55E+05,0.000977,0.000337,0.00103,,,,
7.21E+05,0.00101,0.000815,0.00129,,,,
7.86E+05,0.000569,0.000885,0.000843,,,,
8.52E+05,0.00117,0.000667,0.000488,,,,
9.18E+05,0.000493,4.92E-05,0.000657,,,,
9.83E+05,0.00066,0.00036,0.000696,,,,
1.05E+06,0.0012,0.00243,0.000194,,,,
1.18E+06,0.00109,0.00222,0.000586,,,,
1.31E+06,0.0018,0.00205,0.00122,,,,
1.44E+06,0.00114,0.000992,0.00123,,,,
1.57E+06,0.00083,0.00244,0.00072,,,,
1.70E+06,0,0.000953,0,,,,
1.84E+06,0.000277,0.00187,0,,,,
1.97E+06,0.000709,0.00136,0.000681,,,,
2.10E+06,0,0,0,,,,
2.36E+06,0,0,0,,,,
2.62E+06,0,0,0,,,,
2.88E+06,0,0,0,,,,
3.15E+06,0,0,0,,,,
3.41E+06,0,0,0,,,,
3.67E+06,0,0,0,,,,
3.93E+06,0,0,0,,,,
4.19E+06,0,0,0,,,,
4.72E+06,0,0,0,,,,
5.24E+06,0,0,0,,,,
5.77E+06,0,0,0,,,,
6.29E+06,0,0,0,,,,
6.82E+06,0,0,0,,,,
7.34E+06,0,0,0,,,,
7.86E+06,0,0,0,,,,
8.39E+06,0,0,0,,,,
9.44E+06,0,0,0,,,,
1.05E+07,0,0,0,,,,
1.15E+07,0,0,0,,,,
1.26E+07,0,0,0,,,,
1.36E+07,0,0,0,,,,
1.47E+07,0,0,0,,,,
1.57E+07,0,0,0,,,,
1.68E+07,0,0,0,,,,
1.89E+07,0,0,0,,,,
2.10E+07,0,0,0,,,,
2.31E+07,0,0,0,,,,
2.52E+07,0,0,0,,,,
2.73E+07,0,0,0,,,,
2.94E+07,0,0,0,,,,
3.15E+07,0,0,0,,,,
3.36E+07,0,0,0,,,,
3.77E+07,0,0,0,,,,
4.19E+07,0,0,0,,,,
4.61E+07,0,0,0,,,,
5.03E+07,0,0,0,,,,
5.45E+07,0,0,0,,,,
5.87E+07,0,0,0,,,,