X Lag Time,Record 1: JJ1_01mg_PO1_250ug_200rpm_10-00min_PM_No2_230608 1,Record 2: JJ1_01mg_PO1_250ug_200rpm_10-00min_PM_No2_230608 2,Record 3: JJ1_01mg_PO1_250ug_200rpm_10-00min_PM_No2_230608 3,X Intensity,Record 1: JJ1_01mg_PO1_250ug_200rpm_10-00min_PM_No2_230608 1,Record 2: JJ1_01mg_PO1_250ug_200rpm_10-00min_PM_No2_230608 2,Record 3: JJ1_01mg_PO1_250ug_200rpm_10-00min_PM_No2_230608 3
0.5,0.788,0.783,0.788,0.4,0,0,0
1,0.767,0.761,0.767,0.463,0,0,0
1.5,0.743,0.739,0.744,0.536,0,0,0
2,0.725,0.72,0.724,0.621,0,0,0
2.5,0.708,0.708,0.708,0.719,0,0,0
3,0.695,0.686,0.693,0.833,0,0,0
3.5,0.679,0.671,0.674,0.965,0,0,0
4,0.664,0.651,0.661,1.12,0,0,0
4.5,0.65,0.644,0.643,1.29,0,0,0
5.5,0.623,0.619,0.62,1.5,0,0,0
6.5,0.602,0.591,0.593,1.74,0,0,0
7.5,0.58,0.571,0.572,2.01,0,0,0
8.5,0.559,0.551,0.549,2.33,0,0,0
9.5,0.545,0.531,0.533,2.7,0,0,0
10.5,0.523,0.511,0.515,3.12,0,0,0
11.5,0.506,0.492,0.498,3.62,0,0,0
12.5,0.488,0.477,0.479,4.19,0,0,0
14.5,0.459,0.448,0.449,4.85,0,0,0
16.5,0.432,0.418,0.418,5.61,0,0,0
18.5,0.404,0.391,0.393,6.5,0,0,0
20.5,0.381,0.369,0.37,7.53,1.42,0.749,1.25
22.5,0.357,0.345,0.348,8.72,4.48,3.07,4.12
24.5,0.34,0.328,0.327,10.1,8.23,6.5,7.83
26.5,0.32,0.308,0.307,11.7,11.4,9.98,11.2
28.5,0.302,0.291,0.29,13.5,12.9,12.4,13.1
32.5,0.269,0.262,0.258,15.7,12.4,13.1,13
36.5,0.243,0.234,0.235,18.2,10.1,11.9,11
40.5,0.219,0.21,0.21,21,6.76,9.2,7.76
44.5,0.201,0.191,0.189,24.4,3.41,5.84,4.27
48.5,0.183,0.173,0.173,28.2,1.01,2.77,1.52
52.5,0.168,0.157,0.158,32.7,0,0.746,0.132
56.5,0.155,0.144,0.144,37.8,0,0,0
60.5,0.143,0.132,0.134,43.8,0,0,0
68.5,0.123,0.112,0.115,50.7,0,0,0
76.5,0.108,0.0971,0.101,58.8,0,0,0
84.5,0.0952,0.0869,0.0867,68.1,0,0,0
92.5,0.088,0.0754,0.0771,78.8,0,0,0
101,0.0801,0.0687,0.0695,91.3,0,0,0
109,0.0734,0.0619,0.0627,106,0,0,0
117,0.068,0.058,0.0591,122,0.0188,0,0
125,0.0641,0.0544,0.0553,142,0.377,0.0578,0.0462
141,0.0569,0.0481,0.0493,164,1.09,0.379,0.395
157,0.0521,0.0436,0.0441,190,1.99,0.96,1.05
173,0.0487,0.0393,0.0425,220,2.89,1.68,1.86
189,0.045,0.0368,0.0408,255,3.58,2.4,2.64
205,0.0422,0.0357,0.038,295,3.92,2.95,3.24
221,0.0412,0.0339,0.0369,342,3.88,3.24,3.52
237,0.0391,0.0312,0.0347,396,3.46,3.23,3.45
253,0.0375,0.0289,0.0334,459,2.78,2.92,3.06
285,0.0343,0.0254,0.0296,531,1.97,2.39,2.43
317,0.0308,0.0234,0.0262,615,1.18,1.74,1.69
349,0.029,0.022,0.0241,712,0.544,1.08,0.984
381,0.0246,0.0203,0.0238,825,0.149,0.524,0.431
413,0.0216,0.0178,0.0219,955,0,0.157,0.105
445,0.0206,0.0156,0.0188,1.11E+03,0,0.000294,0
477,0.0181,0.0142,0.0178,1.28E+03,0,0,0
509,0.0162,0.0121,0.0158,1.48E+03,0,0,0
573,0.0148,0.00887,0.0128,1.72E+03,0,0,0
637,0.0118,0.00837,0.0114,1.99E+03,0,0,0
701,0.0102,0.00602,0.00893,2.30E+03,0,0,0
765,0.0079,0.0038,0.00727,2.67E+03,0,0,0
829,0.0065,0.00198,0.00621,3.09E+03,0,0,0
893,0.00598,0.00278,0.00579,3.58E+03,0,0,0
957,0.00539,0.00246,0.00406,4.15E+03,0,0,0
1.02E+03,0.00422,0.00274,0.00382,4.80E+03,0,0,0
1.15E+03,0.00541,0.0016,0.00267,5.56E+03,0,0,0
1.28E+03,0.00481,0.00274,0.00207,6.44E+03,0,0,0
1.40E+03,0.00489,0.00334,0.00167,7.46E+03,0,0,0
1.53E+03,0.00291,0.00282,0.00164,8.63E+03,0,0,0
1.66E+03,0.00373,0.0032,0.000766,,,,
1.79E+03,0.00413,0.00187,0.00249,,,,
1.92E+03,0.00402,0.00192,0.00188,,,,
2.04E+03,0.00321,0.0017,0.00108,,,,
2.30E+03,0.003,0.00169,0.00129,,,,
2.56E+03,0.00266,0.00236,0.00226,,,,
2.81E+03,0.00294,0.00141,0.00249,,,,
3.07E+03,0.00478,0.000812,0.00208,,,,
3.32E+03,0.00396,0.0019,0.00235,,,,
3.58E+03,0.00309,0.00126,0.00233,,,,
3.84E+03,0.00296,0.000568,0.0023,,,,
4.09E+03,0.00346,0.00176,0.00261,,,,
4.60E+03,0.00297,0.00125,0.001,,,,
5.12E+03,0.00244,0.000847,0.00068,,,,
5.63E+03,0.00156,0.0014,0.000739,,,,
6.14E+03,0.00215,0.00209,0.00143,,,,
6.65E+03,0.00222,0.00153,0.00178,,,,
7.16E+03,0.00135,0.00135,0.00173,,,,
7.68E+03,0.00207,0.0012,0.00148,,,,
8.19E+03,0.00176,0.00204,0.00115,,,,
9.21E+03,0.00182,0.00194,0.000897,,,,
1.02E+04,0.0016,0.002,0.00208,,,,
1.13E+04,0.00191,0.00107,0.00154,,,,
1.23E+04,0.00185,0.0014,0.00117,,,,
1.33E+04,0.00262,0.00115,0.00184,,,,
1.43E+04,0.00159,0.00113,0.00171,,,,
1.54E+04,0.00205,0.00184,0.00159,,,,
1.64E+04,0.002,0.00139,0.0011,,,,
1.84E+04,0.00195,0.00124,0.00114,,,,
2.05E+04,0.00186,0.00116,0.002,,,,
2.25E+04,0.0028,0.00116,0.000773,,,,
2.46E+04,0.00186,0.00181,0.00152,,,,
2.66E+04,0.00137,0.00193,0.00219,,,,
2.87E+04,0.00162,0.00146,0.00063,,,,
3.07E+04,0.00263,0.00141,0.00168,,,,
3.28E+04,0.00217,0.00117,0.00176,,,,
3.69E+04,0.00181,0.000975,0.00139,,,,
4.10E+04,0.00145,0.00102,0.00139,,,,
4.51E+04,0.00184,0.0013,0.00085,,,,
4.91E+04,0.00155,0.000957,0.00119,,,,
5.32E+04,0.00149,0.00136,0.000885,,,,
5.73E+04,0.00209,0.000791,0.00121,,,,
6.14E+04,0.00177,0.00127,0.00147,,,,
6.55E+04,0.00192,0.00102,0.00108,,,,
7.37E+04,0.00148,0.00104,0.00112,,,,
8.19E+04,0.00154,0.000893,0.00106,,,,
9.01E+04,0.00143,0.000764,0.000736,,,,
9.83E+04,0.00142,0.000824,0.00112,,,,
1.06E+05,0.0014,0.000765,0.000987,,,,
1.15E+05,0.00106,0.000676,0.00117,,,,
1.23E+05,0.00128,0.000739,0.000711,,,,
1.31E+05,0.00139,0.000852,0.000946,,,,
1.47E+05,0.00108,0.00104,0.00093,,,,
1.64E+05,0.00139,0.000895,0.00113,,,,
1.80E+05,0.00107,0.000925,0.00108,,,,
1.97E+05,0.00111,0.00089,0.000711,,,,
2.13E+05,0.000704,0.000506,0.000724,,,,
2.29E+05,0.000681,0.000823,0.000352,,,,
2.46E+05,0.000787,0.000753,0.000452,,,,
2.62E+05,0.00132,0.000172,0.000845,,,,
2.95E+05,0.000829,0.000225,0.00148,,,,
3.28E+05,0.000849,0.000454,0.000841,,,,
3.60E+05,0.000521,0.000263,0.000763,,,,
3.93E+05,0.00072,0.000256,0.00103,,,,
4.26E+05,0.000602,0.000224,0.000496,,,,
4.59E+05,0.000544,0.000225,0.000767,,,,
4.92E+05,0.000258,0.000284,0.00097,,,,
5.24E+05,0.000724,0.000564,0.00068,,,,
5.90E+05,0.000809,0.000194,0.0001,,,,
6.55E+05,0.00115,0.000983,0.000123,,,,
7.21E+05,0.000657,0.000305,0.000401,,,,
7.86E+05,0.00126,0.000513,9.36E-05,,,,
8.52E+05,0.000381,0.000734,7.72E-05,,,,
9.18E+05,0.00103,0.000439,0,,,,
9.83E+05,0.000923,0.000438,0,,,,
1.05E+06,0.00037,0.000479,0.00104,,,,
1.18E+06,0.000279,0.000106,0.000795,,,,
1.31E+06,8.93E-05,0.00103,0.00116,,,,
1.44E+06,0.000287,0.000238,0.00142,,,,
1.57E+06,0.00119,0.000577,0.00131,,,,
1.70E+06,0.000151,0.000181,0.00185,,,,
1.84E+06,9.50E-05,0.000131,0.00222,,,,
1.97E+06,0,0.00064,0.00131,,,,
2.10E+06,0,0,0,,,,
2.36E+06,0,0,0,,,,
2.62E+06,0,0,0,,,,
2.88E+06,0,0,0,,,,
3.15E+06,0,0,0,,,,
3.41E+06,0,0,0,,,,
3.67E+06,0,0,0,,,,
3.93E+06,0,0,0,,,,
4.19E+06,0,0,0,,,,
4.72E+06,0,0,0,,,,
5.24E+06,0,0,0,,,,
5.77E+06,0,0,0,,,,
6.29E+06,0,0,0,,,,
6.82E+06,0,0,0,,,,
7.34E+06,0,0,0,,,,
7.86E+06,0,0,0,,,,
8.39E+06,0,0,0,,,,
9.44E+06,0,0,0,,,,
1.05E+07,0,0,0,,,,
1.15E+07,0,0,0,,,,
1.26E+07,0,0,0,,,,
1.36E+07,0,0,0,,,,
1.47E+07,0,0,0,,,,
1.57E+07,0,0,0,,,,
1.68E+07,0,0,0,,,,
1.89E+07,0,0,0,,,,
2.10E+07,0,0,0,,,,
2.31E+07,0,0,0,,,,
2.52E+07,0,0,0,,,,
2.73E+07,0,0,0,,,,
2.94E+07,0,0,0,,,,
3.15E+07,0,0,0,,,,
3.36E+07,0,0,0,,,,
3.77E+07,0,0,0,,,,
4.19E+07,0,0,0,,,,
4.61E+07,0,0,0,,,,
5.03E+07,0,0,0,,,,
5.45E+07,0,0,0,,,,
5.87E+07,0,0,0,,,,