X Lag Time,Record 1: JJ1_01mg_PS8_050ug_200rpm_10-00min_ST_No1_230613 1,Record 2: JJ1_01mg_PS8_050ug_200rpm_10-00min_ST_No1_230613 2,Record 3: JJ1_01mg_PS8_050ug_200rpm_10-00min_ST_No1_230613 3,X Intensity,Record 1: JJ1_01mg_PS8_050ug_200rpm_10-00min_ST_No1_230613 1,Record 2: JJ1_01mg_PS8_050ug_200rpm_10-00min_ST_No1_230613 2,Record 3: JJ1_01mg_PS8_050ug_200rpm_10-00min_ST_No1_230613 3
0.5,0.845,0.853,0.86,0.4,0,0,0
1,0.837,0.833,0.85,0.463,0,0,0
1.5,0.82,0.825,0.829,0.536,0,0,0
2,0.802,0.809,0.815,0.621,0,0,0
2.5,0.791,0.807,0.806,0.719,0,0,0
3,0.785,0.789,0.799,0.833,0,0,0
3.5,0.773,0.783,0.791,0.965,0,0,0
4,0.762,0.768,0.776,1.12,0,0,0
4.5,0.753,0.761,0.767,1.29,0,0,0
5.5,0.735,0.741,0.754,1.5,0,0,0
6.5,0.719,0.725,0.739,1.74,0,0,0
7.5,0.702,0.712,0.72,2.01,0,0,0
8.5,0.689,0.697,0.702,2.33,0,0,0
9.5,0.677,0.682,0.692,2.7,0,0,0
10.5,0.661,0.672,0.681,3.12,0,0,0
11.5,0.651,0.66,0.666,3.62,0,0,0
12.5,0.636,0.648,0.655,4.19,0,0,0
14.5,0.617,0.62,0.633,4.85,0,0,0
16.5,0.595,0.602,0.61,5.61,0,0,0
18.5,0.57,0.581,0.59,6.5,0,0.346,0
20.5,0.551,0.562,0.57,7.53,0.599,1.21,0
22.5,0.537,0.544,0.556,8.72,2.1,2.35,0.665
24.5,0.518,0.528,0.539,10.1,4.07,3.46,2.87
26.5,0.503,0.513,0.525,11.7,5.8,4.33,5.65
28.5,0.489,0.497,0.508,13.5,6.72,4.85,7.66
32.5,0.46,0.469,0.48,15.7,6.57,5.03,8.01
36.5,0.436,0.444,0.455,18.2,5.48,4.88,6.65
40.5,0.411,0.421,0.432,21,3.82,4.47,4.26
44.5,0.391,0.401,0.411,24.4,2.11,3.83,1.88
48.5,0.373,0.384,0.391,28.2,0.797,3.02,0.376
52.5,0.356,0.367,0.375,32.7,0.121,2.12,0
56.5,0.342,0.35,0.362,37.8,0,1.26,0
60.5,0.327,0.337,0.345,43.8,0,0.562,0
68.5,0.302,0.312,0.319,50.7,0.205,0.15,0
76.5,0.281,0.29,0.298,58.8,0.807,0.125,0.0886
84.5,0.262,0.272,0.279,68.1,1.79,0.528,0.868
92.5,0.246,0.257,0.262,78.8,3.03,1.33,2.36
101,0.231,0.241,0.249,91.3,4.32,2.45,4.26
109,0.22,0.228,0.235,106,5.47,3.72,6.13
117,0.207,0.216,0.224,122,6.33,4.96,7.57
125,0.198,0.205,0.213,142,6.79,6.01,8.29
141,0.18,0.185,0.196,164,6.82,6.7,8.19
157,0.166,0.17,0.182,190,6.44,6.93,7.32
173,0.151,0.158,0.167,220,5.72,6.66,5.9
189,0.141,0.146,0.154,255,4.76,5.95,4.2
205,0.129,0.136,0.143,295,3.69,4.89,2.55
221,0.122,0.127,0.134,342,2.62,3.64,1.21
237,0.112,0.118,0.124,396,1.66,2.37,0.348
253,0.104,0.111,0.117,459,0.903,1.28,0
285,0.0905,0.0981,0.102,531,0.379,0.506,0
317,0.0789,0.0868,0.0903,615,0.094,0.0965,0
349,0.069,0.0775,0.0796,712,0,0,0
381,0.0607,0.0693,0.0722,825,0,0,0
413,0.0538,0.062,0.0642,955,0,0,0
445,0.0481,0.0557,0.0574,1.11E+03,0,0,0
477,0.0441,0.0494,0.0525,1.28E+03,0,0,0
509,0.0399,0.0448,0.0471,1.48E+03,0,0,0
573,0.0327,0.0362,0.0388,1.72E+03,0,0,0
637,0.0254,0.029,0.0315,1.99E+03,0,0,0
701,0.0204,0.0222,0.0264,2.30E+03,0,0,0
765,0.0168,0.0181,0.0227,2.67E+03,0,0,0.0265
829,0.0122,0.0137,0.0195,3.09E+03,0,0,0.133
893,0.00948,0.0109,0.016,3.58E+03,0,0,0.321
957,0.00927,0.00944,0.0137,4.15E+03,0,0,0.551
1.02E+03,0.00707,0.00878,0.0118,4.80E+03,0,0,0.769
1.15E+03,0.00489,0.00657,0.0101,5.56E+03,0,0,0.914
1.28E+03,0.00433,0.00574,0.00943,6.44E+03,0,0,0
1.40E+03,0.00205,0.00443,0.00749,7.46E+03,0,0,0
1.53E+03,0.00332,0.00276,0.00739,8.63E+03,0,0,0
1.66E+03,0.0019,0.00292,0.0065,,,,
1.79E+03,0.00123,0.00272,0.0057,,,,
1.92E+03,0.00204,0.0023,0.00625,,,,
2.04E+03,0.00301,0.00229,0.00552,,,,
2.30E+03,0.00319,0.00198,0.00457,,,,
2.56E+03,0.00364,0.00226,0.00361,,,,
2.81E+03,0.00198,0.000642,0.00337,,,,
3.07E+03,0.000819,0.0022,0.00141,,,,
3.32E+03,0.00121,0.00264,0.00146,,,,
3.58E+03,0.00175,0.0019,0.000237,,,,
3.84E+03,0.000851,0.00297,0.000148,,,,
4.09E+03,0.000871,0.00215,0.000509,,,,
4.60E+03,0.00142,0.00125,0.000274,,,,
5.12E+03,0.0022,0.00161,0.00309,,,,
5.63E+03,0.000515,0.00121,0.00235,,,,
6.14E+03,0.000577,0.00177,0.003,,,,
6.65E+03,0.000905,0.00172,0.00374,,,,
7.16E+03,0,0.00189,0.00312,,,,
7.68E+03,0.000828,0.00164,0.000643,,,,
8.19E+03,0.000984,0.000921,0.000755,,,,
9.21E+03,0.00124,0.00115,0.00121,,,,
1.02E+04,0.00126,0.0005,0.00132,,,,
1.13E+04,0.00115,0.00119,0.000834,,,,
1.23E+04,0.000305,0.000666,0.000982,,,,
1.33E+04,0.0015,0.00055,0.000727,,,,
1.43E+04,0.00209,0.00162,0.0015,,,,
1.54E+04,0.000978,0.00117,0.000889,,,,
1.64E+04,0.00098,0.000432,0.00111,,,,
1.84E+04,0.000235,0.00156,0.00116,,,,
2.05E+04,0.000742,0.000788,0.0024,,,,
2.25E+04,0.000867,0.000624,0.00111,,,,
2.46E+04,0.0016,0.000481,0.00207,,,,
2.66E+04,0.000472,0.000808,0.000335,,,,
2.87E+04,0.000522,0.00298,0.00114,,,,
3.07E+04,0.000756,0.00169,0.000748,,,,
3.28E+04,0.000523,0.00062,0.000848,,,,
3.69E+04,0.000575,0.000585,0.000651,,,,
4.10E+04,0.00145,0.000723,0.00164,,,,
4.51E+04,0.000455,0.00225,0.000212,,,,
4.91E+04,0.000856,0,0.000184,,,,
5.32E+04,0.00051,0.00137,0.000433,,,,
5.73E+04,0.00168,0.000787,0.000242,,,,
6.14E+04,0.000434,0.00129,0.00153,,,,
6.55E+04,0.000298,0.00131,0.00137,,,,
7.37E+04,0.00056,0.00119,0.000698,,,,
8.19E+04,0.0008,0.000386,0.000357,,,,
9.01E+04,0.000297,0.000853,0.000669,,,,
9.83E+04,0.000484,0.000733,0.000924,,,,
1.06E+05,0.000971,0.00106,0.00047,,,,
1.15E+05,0.00108,0.000148,0.000378,,,,
1.23E+05,0.00119,0.000835,0.000727,,,,
1.31E+05,0.00131,0.000653,0.000429,,,,
1.47E+05,0.000894,0.000245,7.20E-05,,,,
1.64E+05,0.000576,0.000518,0.000144,,,,
1.80E+05,0.00108,0.000384,0.000274,,,,
1.97E+05,0.000773,0.00109,9.66E-05,,,,
2.13E+05,0.0013,0.000699,0.000276,,,,
2.29E+05,0.000911,0.000692,0.000473,,,,
2.46E+05,0.000921,0.000714,0.000192,,,,
2.62E+05,0.00125,0.000668,0.00068,,,,
2.95E+05,0.00115,0.000538,0.000361,,,,
3.28E+05,0.00111,0.000227,6.20E-06,,,,
3.60E+05,0.000934,0.000689,0.000569,,,,
3.93E+05,0.00122,0.000453,0.000136,,,,
4.26E+05,0.00134,0.000376,0.000237,,,,
4.59E+05,0.000794,0.000483,0.000264,,,,
4.92E+05,0.00153,0.000479,0.000589,,,,
5.24E+05,0.00209,2.73E-05,0.000871,,,,
5.90E+05,0.0019,0.000551,0.000633,,,,
6.55E+05,0.00161,0.000646,0.000639,,,,
7.21E+05,0.00117,0.00031,0.000594,,,,
7.86E+05,0.00226,8.24E-05,0.000111,,,,
8.52E+05,0.00193,0.00018,0.000147,,,,
9.18E+05,0.00241,0.000473,0.000597,,,,
9.83E+05,0.00191,0.000331,0.000138,,,,
1.05E+06,0.00123,0.00143,0.000664,,,,
1.18E+06,0.00114,0.000848,0.000759,,,,
1.31E+06,0.0013,0.00177,0.00189,,,,
1.44E+06,0.0017,0.00091,0.000935,,,,
1.57E+06,0.00251,0.00114,0.00116,,,,
1.70E+06,0.00267,0.00119,0.000598,,,,
1.84E+06,0.00249,0.000599,0.00143,,,,
1.97E+06,0.00269,0.00181,0.00182,,,,
2.10E+06,0,0,0,,,,
2.36E+06,0,0,0,,,,
2.62E+06,0,0,0,,,,
2.88E+06,0,0,0,,,,
3.15E+06,0,0,0,,,,
3.41E+06,0,0,0,,,,
3.67E+06,0,0,0,,,,
3.93E+06,0,0,0,,,,
4.19E+06,0,0,0,,,,
4.72E+06,0,0,0,,,,
5.24E+06,0,0,0,,,,
5.77E+06,0,0,0,,,,
6.29E+06,0,0,0,,,,
6.82E+06,0,0,0,,,,
7.34E+06,0,0,0,,,,
7.86E+06,0,0,0,,,,
8.39E+06,0,0,0,,,,
9.44E+06,0,0,0,,,,
1.05E+07,0,0,0,,,,
1.15E+07,0,0,0,,,,
1.26E+07,0,0,0,,,,
1.36E+07,0,0,0,,,,
1.47E+07,0,0,0,,,,
1.57E+07,0,0,0,,,,
1.68E+07,0,0,0,,,,
1.89E+07,0,0,0,,,,
2.10E+07,0,0,0,,,,
2.31E+07,0,0,0,,,,
2.52E+07,0,0,0,,,,
2.73E+07,0,0,0,,,,
2.94E+07,0,0,0,,,,
3.15E+07,0,0,0,,,,
3.36E+07,0,0,0,,,,
3.77E+07,0,0,0,,,,
4.19E+07,0,0,0,,,,
4.61E+07,0,0,0,,,,
5.03E+07,0,0,0,,,,
5.45E+07,0,0,0,,,,
5.87E+07,0,0,0,,,,