X Lag Time,Record 1: JJ1_01mg_PS8_500ug_200rpm_10-00min_ST_No2 1,Record 2: JJ1_01mg_PS8_500ug_200rpm_10-00min_ST_No2 2,Record 3: JJ1_01mg_PS8_500ug_200rpm_10-00min_ST_No2 3,X Intensity,Record 1: JJ1_01mg_PS8_500ug_200rpm_10-00min_ST_No2 1,Record 2: JJ1_01mg_PS8_500ug_200rpm_10-00min_ST_No2 2,Record 3: JJ1_01mg_PS8_500ug_200rpm_10-00min_ST_No2 3
0.5,0.822,0.831,0.829,0.4,0,0,0
1,0.809,0.814,0.82,0.463,0,0,0
1.5,0.798,0.802,0.808,0.536,0,0,0
2,0.79,0.794,0.799,0.621,0,0,0
2.5,0.782,0.784,0.791,0.719,0,0,0
3,0.77,0.772,0.781,0.833,0,0,0
3.5,0.761,0.764,0.77,0.965,0,0,0
4,0.755,0.755,0.765,1.12,0,0,0
4.5,0.745,0.746,0.758,1.29,0,0,0
5.5,0.734,0.73,0.745,1.5,0,0,0
6.5,0.717,0.717,0.732,1.74,0,0,0
7.5,0.706,0.709,0.718,2.01,0,0,0
8.5,0.696,0.693,0.705,2.33,0,0,0
9.5,0.686,0.68,0.697,2.7,0,0,0
10.5,0.675,0.671,0.683,3.12,0,0,0
11.5,0.663,0.658,0.677,3.62,0,0,0
12.5,0.654,0.648,0.667,4.19,0,0,0
14.5,0.633,0.63,0.649,4.85,0,0,0
16.5,0.616,0.611,0.631,5.61,0,0,0
18.5,0.6,0.593,0.614,6.5,0,0,0
20.5,0.587,0.576,0.6,7.53,0.0981,0.159,0.641
22.5,0.571,0.562,0.585,8.72,1.8,2.41,2.66
24.5,0.557,0.546,0.569,10.1,4.71,5.75,5.23
26.5,0.542,0.534,0.56,11.7,7.56,8.44,7.22
28.5,0.53,0.518,0.547,13.5,9.14,9.3,7.87
32.5,0.508,0.495,0.524,15.7,8.78,8.1,7.09
36.5,0.488,0.472,0.504,18.2,6.66,5.52,5.3
40.5,0.469,0.456,0.485,21,3.7,2.7,3.2
44.5,0.452,0.437,0.468,24.4,1.16,0.707,1.42
48.5,0.437,0.421,0.455,28.2,0,0,0.351
52.5,0.423,0.406,0.441,32.7,0,0,0
56.5,0.41,0.394,0.428,37.8,0,0,0
60.5,0.4,0.381,0.416,43.8,0,0,0
68.5,0.379,0.361,0.396,50.7,0,0,0
76.5,0.36,0.344,0.379,58.8,0,0,0
84.5,0.347,0.328,0.365,68.1,0,0,0
92.5,0.334,0.315,0.351,78.8,0,0,0
101,0.323,0.304,0.34,91.3,0,0.223,0
109,0.312,0.294,0.33,106,0,1.63,0
117,0.302,0.284,0.321,122,1.96,4.17,1.33
125,0.295,0.276,0.313,142,5.66,7.15,4.3
141,0.28,0.261,0.301,164,9.61,9.6,8.04
157,0.268,0.248,0.286,190,12,10.7,11.1
173,0.258,0.237,0.275,220,11.8,9.95,12.2
189,0.248,0.228,0.265,255,9.03,7.6,10.8
205,0.239,0.218,0.255,295,4.89,4.4,7.35
221,0.231,0.211,0.247,342,1.38,1.51,3.33
237,0.224,0.202,0.241,396,0,0,0.555
253,0.218,0.195,0.233,459,0,0,0
285,0.205,0.184,0.218,531,0,0,0
317,0.194,0.172,0.206,615,0,0,0
349,0.183,0.161,0.195,712,0,0,0
381,0.174,0.151,0.185,825,0,0,0
413,0.166,0.142,0.176,955,0,0,0
445,0.158,0.135,0.169,1.11E+03,0,0,0
477,0.15,0.128,0.161,1.28E+03,0,0,0
509,0.142,0.123,0.154,1.48E+03,0,0,0
573,0.13,0.111,0.14,1.72E+03,0,0,0
637,0.121,0.101,0.13,1.99E+03,0,0,0
701,0.112,0.0923,0.119,2.30E+03,0,0,0
765,0.104,0.0843,0.111,2.67E+03,0,0,0
829,0.0955,0.0786,0.104,3.09E+03,0,0,0
893,0.0895,0.0724,0.0964,3.58E+03,0,0,0
957,0.0851,0.0673,0.0902,4.15E+03,0,0,0
1.02E+03,0.0805,0.0629,0.0852,4.80E+03,0,0,0
1.15E+03,0.0731,0.0577,0.0763,5.56E+03,0,0,0
1.28E+03,0.0677,0.0525,0.0686,6.44E+03,0,0,0
1.40E+03,0.0632,0.0475,0.063,7.46E+03,0,0,0
1.53E+03,0.0582,0.0421,0.0577,8.63E+03,0,0,0
1.66E+03,0.0548,0.0397,0.0552,,,,
1.79E+03,0.0511,0.0391,0.0508,,,,
1.92E+03,0.0489,0.0381,0.0465,,,,
2.04E+03,0.0476,0.0362,0.0439,,,,
2.30E+03,0.0431,0.0327,0.0421,,,,
2.56E+03,0.0406,0.0309,0.0394,,,,
2.81E+03,0.0394,0.0289,0.0384,,,,
3.07E+03,0.0406,0.0287,0.0391,,,,
3.32E+03,0.0383,0.0281,0.0369,,,,
3.58E+03,0.0371,0.0282,0.0353,,,,
3.84E+03,0.0386,0.0264,0.0342,,,,
4.09E+03,0.0382,0.0273,0.0335,,,,
4.60E+03,0.0344,0.0256,0.0318,,,,
5.12E+03,0.0302,0.0232,0.0305,,,,
5.63E+03,0.0284,0.0221,0.031,,,,
6.14E+03,0.0296,0.0219,0.0337,,,,
6.65E+03,0.03,0.0219,0.0327,,,,
7.16E+03,0.0296,0.0223,0.0313,,,,
7.68E+03,0.0304,0.0236,0.0306,,,,
8.19E+03,0.029,0.0231,0.0321,,,,
9.21E+03,0.0284,0.0223,0.029,,,,
1.02E+04,0.0304,0.0209,0.0271,,,,
1.13E+04,0.0311,0.0226,0.0302,,,,
1.23E+04,0.0294,0.0201,0.0304,,,,
1.33E+04,0.0302,0.0195,0.0297,,,,
1.43E+04,0.0304,0.0189,0.0287,,,,
1.54E+04,0.0311,0.0162,0.0301,,,,
1.64E+04,0.0307,0.0173,0.0295,,,,
1.84E+04,0.0284,0.0196,0.0291,,,,
2.05E+04,0.0277,0.0227,0.0271,,,,
2.25E+04,0.0238,0.0198,0.0276,,,,
2.46E+04,0.0234,0.0195,0.0264,,,,
2.66E+04,0.0225,0.02,0.0238,,,,
2.87E+04,0.0229,0.0204,0.0267,,,,
3.07E+04,0.0225,0.0183,0.0259,,,,
3.28E+04,0.024,0.0191,0.0261,,,,
3.69E+04,0.0228,0.0192,0.0249,,,,
4.10E+04,0.0216,0.017,0.0248,,,,
4.51E+04,0.0207,0.016,0.0261,,,,
4.91E+04,0.0185,0.0147,0.0226,,,,
5.32E+04,0.0189,0.0121,0.0231,,,,
5.73E+04,0.0196,0.0117,0.0187,,,,
6.14E+04,0.0169,0.0109,0.0188,,,,
6.55E+04,0.0151,0.0114,0.0182,,,,
7.37E+04,0.0148,0.0124,0.0166,,,,
8.19E+04,0.0105,0.0107,0.0155,,,,
9.01E+04,0.0101,0.0102,0.0154,,,,
9.83E+04,0.00902,0.00742,0.0141,,,,
1.06E+05,0.00756,0.00576,0.0109,,,,
1.15E+05,0.00695,0.00611,0.0111,,,,
1.23E+05,0.00456,0.00591,0.011,,,,
1.31E+05,0.00442,0.0036,0.00873,,,,
1.47E+05,0.00265,0.00211,0.00557,,,,
1.64E+05,0.00185,0.00113,0.00495,,,,
1.80E+05,0.00156,0.000818,0.00349,,,,
1.97E+05,0.00262,0.00083,0.00283,,,,
2.13E+05,0.00182,0.000848,0.00373,,,,
2.29E+05,0.00156,0.000774,0.00425,,,,
2.46E+05,0.002,0,0.00137,,,,
2.62E+05,0.00245,0,0.00265,,,,
2.95E+05,0.00273,0.000435,0.00232,,,,
3.28E+05,0.00222,3.18E-05,0.00387,,,,
3.60E+05,0.0052,0,0.00347,,,,
3.93E+05,0.00639,0.00033,0.00326,,,,
4.26E+05,0.00567,0.000257,0.00406,,,,
4.59E+05,0.00466,0.000722,0.00239,,,,
4.92E+05,0.00314,0.000985,0.00114,,,,
5.24E+05,0.00139,0.000743,0.00126,,,,
5.90E+05,0.00137,0.00115,0.000278,,,,
6.55E+05,0.0011,0.000699,0.000257,,,,
7.21E+05,0.00377,0.00431,0.000907,,,,
7.86E+05,0.00211,0.0034,0.00184,,,,
8.52E+05,0.0016,0.00332,0.0046,,,,
9.18E+05,0.000962,0.00384,0.00158,,,,
9.83E+05,8.37E-06,0.00372,0.00107,,,,
1.05E+06,0.00236,0.000677,0.00279,,,,
1.18E+06,0.0069,0.000699,0.00585,,,,
1.31E+06,0.0102,0.00159,0.00423,,,,
1.44E+06,0.00624,0.00204,0.00546,,,,
1.57E+06,0.0046,0.00177,0.0023,,,,
1.70E+06,0.0046,0.00047,0,,,,
1.84E+06,0.00542,0.000138,0,,,,
1.97E+06,0.00434,0.00367,0.00166,,,,
2.10E+06,0,0,0,,,,
2.36E+06,0,0,0,,,,
2.62E+06,0,0,0,,,,
2.88E+06,0,0,0,,,,
3.15E+06,0,0,0,,,,
3.41E+06,0,0,0,,,,
3.67E+06,0,0,0,,,,
3.93E+06,0,0,0,,,,
4.19E+06,0,0,0,,,,
4.72E+06,0,0,0,,,,
5.24E+06,0,0,0,,,,
5.77E+06,0,0,0,,,,
6.29E+06,0,0,0,,,,
6.82E+06,0,0,0,,,,
7.34E+06,0,0,0,,,,
7.86E+06,0,0,0,,,,
8.39E+06,0,0,0,,,,
9.44E+06,0,0,0,,,,
1.05E+07,0,0,0,,,,
1.15E+07,0,0,0,,,,
1.26E+07,0,0,0,,,,
1.36E+07,0,0,0,,,,
1.47E+07,0,0,0,,,,
1.57E+07,0,0,0,,,,
1.68E+07,0,0,0,,,,
1.89E+07,0,0,0,,,,
2.10E+07,0,0,0,,,,
2.31E+07,0,0,0,,,,
2.52E+07,0,0,0,,,,
2.73E+07,0,0,0,,,,
2.94E+07,0,0,0,,,,
3.15E+07,0,0,0,,,,
3.36E+07,0,0,0,,,,
3.77E+07,0,0,0,,,,
4.19E+07,0,0,0,,,,
4.61E+07,0,0,0,,,,
5.03E+07,0,0,0,,,,
5.45E+07,0,0,0,,,,
5.87E+07,0,0,0,,,,