X Lag Time,Record 1: JJ1_01mg_PS8_010ug_200rpm_10-00min_PM_No4_230622 1,Record 2: JJ1_01mg_PS8_010ug_200rpm_10-00min_PM_No4_230622 2,Record 3: JJ1_01mg_PS8_010ug_200rpm_10-00min_PM_No4_230622 3,X Intensity,Record 1: JJ1_01mg_PS8_010ug_200rpm_10-00min_PM_No4_230622 1,Record 2: JJ1_01mg_PS8_010ug_200rpm_10-00min_PM_No4_230622 2,Record 3: JJ1_01mg_PS8_010ug_200rpm_10-00min_PM_No4_230622 3
0.5,0.811,0.792,0.799,0.4,0,0,0
1,0.788,0.765,0.772,0.463,0,0,0
1.5,0.767,0.744,0.755,0.536,0,0,0
2,0.741,0.718,0.736,0.621,0,0,0
2.5,0.727,0.709,0.712,0.719,0,0,0
3,0.708,0.689,0.696,0.833,0,0,0
3.5,0.695,0.672,0.68,0.965,0,0,0
4,0.677,0.657,0.667,1.12,0,0,0
4.5,0.666,0.647,0.655,1.29,0,0,0
5.5,0.636,0.617,0.625,1.5,0,0,0
6.5,0.613,0.592,0.602,1.74,0,0,0
7.5,0.589,0.568,0.58,2.01,0,0,0
8.5,0.57,0.549,0.556,2.33,0,0,0
9.5,0.545,0.526,0.543,2.7,0,0,0
10.5,0.527,0.51,0.519,3.12,0,0,0
11.5,0.508,0.485,0.501,3.62,0,0,0
12.5,0.495,0.472,0.484,4.19,0,0,0
14.5,0.462,0.441,0.454,4.85,0,0,0
16.5,0.435,0.414,0.423,5.61,0,0,0.0243
18.5,0.405,0.387,0.399,6.5,0,0,0.944
20.5,0.381,0.362,0.373,7.53,0.693,0.822,2.95
22.5,0.36,0.339,0.352,8.72,3.65,3.68,5.7
24.5,0.339,0.318,0.332,10.1,8.06,7.8,8.52
26.5,0.32,0.303,0.313,11.7,12.1,11.7,10.7
28.5,0.301,0.284,0.295,13.5,14.3,13.9,11.7
32.5,0.27,0.252,0.265,15.7,13.7,13.7,11.2
36.5,0.243,0.226,0.237,18.2,10.7,11.3,9.36
40.5,0.219,0.203,0.216,21,6.4,7.55,6.7
44.5,0.201,0.183,0.197,24.4,2.51,3.74,3.88
48.5,0.182,0.165,0.18,28.2,0.295,1.05,1.59
52.5,0.168,0.152,0.164,32.7,0,0,0.301
56.5,0.155,0.139,0.151,37.8,0,0,0
60.5,0.143,0.128,0.14,43.8,0,0,0
68.5,0.124,0.11,0.122,50.7,0,0,0
76.5,0.11,0.0953,0.107,58.8,0,0,0
84.5,0.0982,0.0849,0.0941,68.1,0,0,0
92.5,0.0903,0.0782,0.0863,78.8,0,0,0
101,0.0812,0.0703,0.08,91.3,0,0,0
109,0.075,0.0645,0.0745,106,0,0,0
117,0.07,0.0587,0.0689,122,0,0,0
125,0.066,0.056,0.0658,142,0,0,0
141,0.0596,0.0498,0.0582,164,0,0,0.162
157,0.0561,0.0453,0.0541,190,0,0.274,0.562
173,0.0527,0.0423,0.0505,220,0.318,0.885,1.14
189,0.0505,0.0405,0.0478,255,1.01,1.71,1.8
205,0.049,0.0377,0.0455,295,1.93,2.55,2.41
221,0.0481,0.0354,0.0427,342,2.85,3.21,2.87
237,0.0461,0.0326,0.04,396,3.56,3.57,3.12
253,0.0446,0.0315,0.0383,459,3.93,3.55,3.14
285,0.0415,0.0292,0.0376,531,3.89,3.17,2.95
317,0.0377,0.0275,0.036,615,3.48,2.54,2.58
349,0.0356,0.0263,0.0346,712,2.79,1.77,2.09
381,0.0333,0.0245,0.0332,825,1.97,1.03,1.57
413,0.0315,0.0223,0.0299,955,1.18,0.448,1.06
445,0.0288,0.0222,0.028,1.11E+03,0.539,0.106,0.627
477,0.0281,0.0212,0.026,1.28E+03,0.145,0,0.303
509,0.0262,0.0192,0.0245,1.48E+03,0,0,0.102
573,0.0236,0.0151,0.0233,1.72E+03,0,0,0.0135
637,0.0226,0.0137,0.0203,1.99E+03,0,0,0
701,0.0205,0.0121,0.017,2.30E+03,0,0,0
765,0.0165,0.0114,0.0162,2.67E+03,0,0,0
829,0.0159,0.00892,0.0167,3.09E+03,0,0,0
893,0.0158,0.00756,0.0135,3.58E+03,0,0,0
957,0.0144,0.00618,0.0122,4.15E+03,0,0,0
1.02E+03,0.0125,0.00637,0.0125,4.80E+03,0,0,0
1.15E+03,0.0098,0.00502,0.0102,5.56E+03,0,0,0
1.28E+03,0.0072,0.00235,0.00797,6.44E+03,0,0,0
1.40E+03,0.00686,0.00219,0.00933,7.46E+03,0,0,0
1.53E+03,0.00639,0.00319,0.00731,8.63E+03,0,0,0
1.66E+03,0.0067,0.00182,0.00509,,,,
1.79E+03,0.00593,0.00185,0.00428,,,,
1.92E+03,0.00316,0.000957,0.00386,,,,
2.04E+03,0.00304,0.000743,0.00389,,,,
2.30E+03,0.00359,0.00123,0.0043,,,,
2.56E+03,0.00305,0.00157,0.00257,,,,
2.81E+03,0.00313,0.000582,0.00313,,,,
3.07E+03,0.00306,0.000545,0.00311,,,,
3.32E+03,0.0032,0.00122,0.00184,,,,
3.58E+03,0.00301,0.000924,0.00158,,,,
3.84E+03,0.00292,0.00155,0.00164,,,,
4.09E+03,0.00317,0.000998,0.00157,,,,
4.60E+03,0.00248,0.00123,0.00223,,,,
5.12E+03,0.00161,0.000652,0.00201,,,,
5.63E+03,0.000735,0.000676,0.00105,,,,
6.14E+03,0.0016,0.000714,0.00125,,,,
6.65E+03,0.00069,0.000656,0.00202,,,,
7.16E+03,0.000708,0.00121,0.000747,,,,
7.68E+03,0.00136,0.00102,0.00105,,,,
8.19E+03,0.00144,0.000848,0.00104,,,,
9.21E+03,0.000774,0.0017,0.000522,,,,
1.02E+04,0.000293,0.00128,0.001,,,,
1.13E+04,0.000678,0.000795,0.00113,,,,
1.23E+04,0.000788,0.00102,0.000599,,,,
1.33E+04,0.000178,0.00111,0.00103,,,,
1.43E+04,0.000837,0.00123,0.00061,,,,
1.54E+04,0.000408,0.000463,0.000375,,,,
1.64E+04,0.000484,0.00061,0.000635,,,,
1.84E+04,0.000607,0.00066,0.000839,,,,
2.05E+04,0.000504,0.000766,0.000468,,,,
2.25E+04,0.000143,0.00034,0.000199,,,,
2.46E+04,0.000772,0.000628,0.000552,,,,
2.66E+04,0,0.000687,0.000537,,,,
2.87E+04,0.000583,0.000344,0.000222,,,,
3.07E+04,0.000288,0.000536,0.000657,,,,
3.28E+04,0.000587,0.000358,0.000278,,,,
3.69E+04,0.0011,0.00056,0.000543,,,,
4.10E+04,0.000433,0.000534,0.000475,,,,
4.51E+04,0.0012,0.000509,0.000312,,,,
4.91E+04,0.000255,0.000607,0.000154,,,,
5.32E+04,0.000829,0.00089,0.00051,,,,
5.73E+04,0.000765,0.000965,0.000524,,,,
6.14E+04,0.000503,0.000458,0.00127,,,,
6.55E+04,0.000645,0.000506,0.000691,,,,
7.37E+04,0.00037,0.000584,0.000358,,,,
8.19E+04,0.000286,0.000345,0.000846,,,,
9.01E+04,0.000471,0.000411,0.000812,,,,
9.83E+04,0.000912,0.000482,0.000253,,,,
1.06E+05,0.000403,0.000606,0.00058,,,,
1.15E+05,0.000293,0.000317,0.000595,,,,
1.23E+05,0.000582,0.000296,0.000297,,,,
1.31E+05,0.000289,0.000697,0.000163,,,,
1.47E+05,0.000261,0.000457,0.000325,,,,
1.64E+05,0.000352,0.000365,0.000267,,,,
1.80E+05,0.000361,0.00044,0.00012,,,,
1.97E+05,2.83E-05,0.000532,0.000129,,,,
2.13E+05,0.00048,0.000297,0.000252,,,,
2.29E+05,0.000117,0.000399,0.000151,,,,
2.46E+05,5.50E-05,0.000451,0.000165,,,,
2.62E+05,0.00116,0.000465,0.00017,,,,
2.95E+05,0.000976,7.13E-05,0.000303,,,,
3.28E+05,0.000171,0.000217,0.000408,,,,
3.60E+05,0.000662,0.000347,9.09E-05,,,,
3.93E+05,0.000532,0.000253,0.000668,,,,
4.26E+05,0.000682,0.000201,4.19E-05,,,,
4.59E+05,0.000537,0.000277,0.000209,,,,
4.92E+05,0.000523,0.000149,0.000242,,,,
5.24E+05,0.000414,0.000516,2.02E-06,,,,
5.90E+05,0.000527,5.82E-05,8.26E-05,,,,
6.55E+05,0.000397,0.00047,0.00043,,,,
7.21E+05,0.000473,0.000793,0.000393,,,,
7.86E+05,0.00042,0.000505,0.000743,,,,
8.52E+05,0.000367,0.000593,0.000315,,,,
9.18E+05,0.000396,0.000175,0.000382,,,,
9.83E+05,5.04E-05,0.000411,0.000312,,,,
1.05E+06,0.00124,0.000215,0.000846,,,,
1.18E+06,0.000817,0.000279,0.00106,,,,
1.31E+06,0.000869,0.000588,0.001,,,,
1.44E+06,0.00124,0.000598,0.00063,,,,
1.57E+06,0.00054,0.000427,0.000438,,,,
1.70E+06,0.000417,0,0.000299,,,,
1.84E+06,0.000157,0.00016,0.000903,,,,
1.97E+06,0.00067,8.34E-05,0.00021,,,,
2.10E+06,0,0,0,,,,
2.36E+06,0,0,0,,,,
2.62E+06,0,0,0,,,,
2.88E+06,0,0,0,,,,
3.15E+06,0,0,0,,,,
3.41E+06,0,0,0,,,,
3.67E+06,0,0,0,,,,
3.93E+06,0,0,0,,,,
4.19E+06,0,0,0,,,,
4.72E+06,0,0,0,,,,
5.24E+06,0,0,0,,,,
5.77E+06,0,0,0,,,,
6.29E+06,0,0,0,,,,
6.82E+06,0,0,0,,,,
7.34E+06,0,0,0,,,,
7.86E+06,0,0,0,,,,
8.39E+06,0,0,0,,,,
9.44E+06,0,0,0,,,,
1.05E+07,0,0,0,,,,
1.15E+07,0,0,0,,,,
1.26E+07,0,0,0,,,,
1.36E+07,0,0,0,,,,
1.47E+07,0,0,0,,,,
1.57E+07,0,0,0,,,,
1.68E+07,0,0,0,,,,
1.89E+07,0,0,0,,,,
2.10E+07,0,0,0,,,,
2.31E+07,0,0,0,,,,
2.52E+07,0,0,0,,,,
2.73E+07,0,0,0,,,,
2.94E+07,0,0,0,,,,
3.15E+07,0,0,0,,,,
3.36E+07,0,0,0,,,,
3.77E+07,0,0,0,,,,
4.19E+07,0,0,0,,,,
4.61E+07,0,0,0,,,,
5.03E+07,0,0,0,,,,
5.45E+07,0,0,0,,,,
5.87E+07,0,0,0,,,,