X Lag Time,Record 1: JJmAb1_01mg_PS2_500ug_200rpm_10-00min_ST_No1 1,Record 2: JJmAb1_01mg_PS2_500ug_200rpm_10-00min_ST_No1 2,Record 3: JJmAb1_01mg_PS2_500ug_200rpm_10-00min_ST_No1 3,X Intensity,Record 1: JJmAb1_01mg_PS2_500ug_200rpm_10-00min_ST_No1 1,Record 2: JJmAb1_01mg_PS2_500ug_200rpm_10-00min_ST_No1 2,Record 3: JJmAb1_01mg_PS2_500ug_200rpm_10-00min_ST_No1 3
0.5,0.864,0.851,0.858,0.4,0,0,0
1,0.864,0.848,0.853,0.463,0,0,0
1.5,0.853,0.84,0.846,0.536,0,0,0
2,0.844,0.831,0.836,0.621,0,0,0
2.5,0.84,0.826,0.832,0.719,0,0,0
3,0.835,0.819,0.828,0.833,0,0,0
3.5,0.83,0.815,0.822,0.965,0,0,0
4,0.825,0.809,0.815,1.12,0,0,0
4.5,0.82,0.806,0.81,1.29,0,0,0
5.5,0.81,0.795,0.802,1.5,0,0,0
6.5,0.801,0.788,0.794,1.74,0,0,0
7.5,0.792,0.778,0.784,2.01,0,0,0
8.5,0.785,0.77,0.777,2.33,0,0,0
9.5,0.777,0.761,0.766,2.7,0,0,0
10.5,0.77,0.753,0.76,3.12,0,0,0
11.5,0.762,0.747,0.753,3.62,0,0,0
12.5,0.755,0.739,0.746,4.19,0,0,0
14.5,0.742,0.724,0.731,4.85,0,0,0
16.5,0.73,0.711,0.72,5.61,0,0,0
18.5,0.716,0.7,0.706,6.5,0,0,0
20.5,0.704,0.688,0.695,7.53,0.152,0,0
22.5,0.693,0.677,0.683,8.72,1.02,0.725,0.792
24.5,0.682,0.665,0.672,10.1,2.42,2.13,2.35
26.5,0.674,0.656,0.661,11.7,3.75,3.55,3.85
28.5,0.664,0.646,0.652,13.5,4.38,4.31,4.54
32.5,0.646,0.629,0.633,15.7,4.02,4.09,4.13
36.5,0.628,0.611,0.616,18.2,2.84,3.04,2.9
40.5,0.613,0.595,0.6,21,1.38,1.65,1.46
44.5,0.6,0.581,0.585,24.4,0.319,0.514,0.397
48.5,0.586,0.567,0.571,28.2,0,0,0
52.5,0.573,0.556,0.56,32.7,0,0,0
56.5,0.563,0.543,0.548,37.8,0,0,0
60.5,0.552,0.533,0.537,43.8,0,0,0.00187
68.5,0.532,0.512,0.516,50.7,0,0,0.151
76.5,0.514,0.495,0.497,58.8,0,0,0.412
84.5,0.498,0.478,0.481,68.1,0.309,0.185,0.726
92.5,0.484,0.463,0.467,78.8,1.16,0.76,1.1
101,0.471,0.45,0.453,91.3,2.41,1.73,1.64
109,0.458,0.438,0.439,106,3.77,2.99,2.45
117,0.446,0.426,0.428,122,5.04,4.39,3.63
125,0.436,0.415,0.417,142,6.09,5.79,5.15
141,0.416,0.396,0.398,164,6.92,7.04,6.84
157,0.399,0.377,0.379,190,7.56,7.98,8.43
173,0.383,0.361,0.363,220,7.99,8.51,9.56
189,0.367,0.345,0.348,255,8.17,8.52,9.93
205,0.353,0.331,0.333,295,7.97,8.01,9.36
221,0.34,0.318,0.319,342,7.3,6.99,7.88
237,0.327,0.306,0.307,396,6.12,5.59,5.76
253,0.315,0.294,0.295,459,4.54,3.99,3.45
285,0.294,0.273,0.274,531,2.8,2.43,1.49
317,0.274,0.254,0.253,615,1.27,1.15,0.314
349,0.256,0.235,0.235,712,0.289,0.323,0
381,0.24,0.219,0.219,825,0,0,0
413,0.225,0.204,0.205,955,0,0,0
445,0.212,0.191,0.192,1.11E+03,0,0,0
477,0.2,0.179,0.18,1.28E+03,0,0,0
509,0.188,0.168,0.17,1.48E+03,0,0,0
573,0.168,0.148,0.15,1.72E+03,0,0,0
637,0.15,0.132,0.134,1.99E+03,0,0,0
701,0.136,0.118,0.119,2.30E+03,0,0,0
765,0.124,0.107,0.108,2.67E+03,0,0,0
829,0.113,0.0969,0.0969,3.09E+03,0,0,0
893,0.105,0.0869,0.0886,3.58E+03,0,0,0
957,0.0971,0.0787,0.0812,4.15E+03,0,0.343,0
1.02E+03,0.0911,0.0723,0.075,4.80E+03,0,1.13,0.2
1.15E+03,0.0804,0.0601,0.0643,5.56E+03,0,2.15,1.12
1.28E+03,0.0706,0.0505,0.0542,6.44E+03,0,0,0
1.40E+03,0.0634,0.0448,0.0462,7.46E+03,0,0,0
1.53E+03,0.0564,0.041,0.0405,8.63E+03,0,0,0
1.66E+03,0.051,0.038,0.035,,,,
1.79E+03,0.0465,0.0335,0.0303,,,,
1.92E+03,0.0424,0.0303,0.0272,,,,
2.04E+03,0.0392,0.0271,0.0256,,,,
2.30E+03,0.0313,0.0223,0.0232,,,,
2.56E+03,0.0302,0.0178,0.0197,,,,
2.81E+03,0.0291,0.0149,0.0186,,,,
3.07E+03,0.0284,0.0132,0.0166,,,,
3.32E+03,0.028,0.0121,0.0167,,,,
3.58E+03,0.026,0.0109,0.0178,,,,
3.84E+03,0.0234,0.0121,0.0193,,,,
4.09E+03,0.02,0.0142,0.0199,,,,
4.60E+03,0.0166,0.014,0.0181,,,,
5.12E+03,0.0171,0.0146,0.0197,,,,
5.63E+03,0.0173,0.0138,0.0225,,,,
6.14E+03,0.0168,0.0111,0.0208,,,,
6.65E+03,0.0186,0.0102,0.0199,,,,
7.16E+03,0.0202,0.0117,0.0171,,,,
7.68E+03,0.0196,0.00876,0.0146,,,,
8.19E+03,0.0201,0.0081,0.0132,,,,
9.21E+03,0.0161,0.00817,0.0112,,,,
1.02E+04,0.0155,0.0069,0.0164,,,,
1.13E+04,0.0167,0.00901,0.0186,,,,
1.23E+04,0.0169,0.00828,0.0194,,,,
1.33E+04,0.0187,0.00953,0.0198,,,,
1.43E+04,0.0191,0.00547,0.0187,,,,
1.54E+04,0.0203,0.0056,0.0155,,,,
1.64E+04,0.0174,0.00793,0.0159,,,,
1.84E+04,0.0185,0.0094,0.0161,,,,
2.05E+04,0.0212,0.00641,0.0152,,,,
2.25E+04,0.0213,0.0079,0.0146,,,,
2.46E+04,0.0174,0.00803,0.0146,,,,
2.66E+04,0.0167,0.00648,0.0166,,,,
2.87E+04,0.0187,0.00409,0.0166,,,,
3.07E+04,0.0166,0.00803,0.0159,,,,
3.28E+04,0.0159,0.00867,0.0151,,,,
3.69E+04,0.0146,0.00825,0.015,,,,
4.10E+04,0.0172,0.00806,0.0161,,,,
4.51E+04,0.0161,0.00676,0.0139,,,,
4.91E+04,0.016,0.00588,0.0116,,,,
5.32E+04,0.0184,0.00522,0.0124,,,,
5.73E+04,0.0154,0.0052,0.0132,,,,
6.14E+04,0.0143,0.00782,0.014,,,,
6.55E+04,0.0146,0.00677,0.0126,,,,
7.37E+04,0.0145,0.00653,0.0116,,,,
8.19E+04,0.0128,0.00643,0.0113,,,,
9.01E+04,0.0117,0.00496,0.0132,,,,
9.83E+04,0.0119,0.00448,0.0129,,,,
1.06E+05,0.0119,0.00436,0.0113,,,,
1.15E+05,0.00948,0.00239,0.013,,,,
1.23E+05,0.00797,0.00436,0.0137,,,,
1.31E+05,0.00936,0.00489,0.0104,,,,
1.47E+05,0.00847,0.00509,0.0121,,,,
1.64E+05,0.00879,0.00266,0.00847,,,,
1.80E+05,0.00821,0.00193,0.00697,,,,
1.97E+05,0.00815,0.00242,0.00731,,,,
2.13E+05,0.00642,0.00163,0.00779,,,,
2.29E+05,0.00611,0.00454,0.00729,,,,
2.46E+05,0.00653,0.000856,0.0083,,,,
2.62E+05,0.0071,0.002,0.00634,,,,
2.95E+05,0.00688,0.00218,0.00569,,,,
3.28E+05,0.00758,0.00144,0.00473,,,,
3.60E+05,0.00709,0.00152,0.00601,,,,
3.93E+05,0.00639,0.00124,0.00519,,,,
4.26E+05,0.00568,0.00134,0.00648,,,,
4.59E+05,0.00373,0.00131,0.00386,,,,
4.92E+05,0.00344,0.00223,0.00334,,,,
5.24E+05,0.00466,0.0024,0.00446,,,,
5.90E+05,0.00499,0.00188,0.00181,,,,
6.55E+05,0.00671,0.00168,0.00219,,,,
7.21E+05,0.00394,0.00118,0.0029,,,,
7.86E+05,0.00507,0.000591,0.00334,,,,
8.52E+05,0.004,0.000565,0.00157,,,,
9.18E+05,0.00418,0.000923,0.00085,,,,
9.83E+05,0.00319,0.00195,0.00286,,,,
1.05E+06,0.00352,0.000914,0.00587,,,,
1.18E+06,0.00284,0.00246,0.00666,,,,
1.31E+06,0.00283,0.00233,0.00282,,,,
1.44E+06,0.00318,0.00173,0.00151,,,,
1.57E+06,0.0011,0.0011,0.00123,,,,
1.70E+06,0.00153,0.00235,0.00175,,,,
1.84E+06,0.00163,0.00288,0.00227,,,,
1.97E+06,0.00217,0.00133,0.00276,,,,
2.10E+06,0,0,0,,,,
2.36E+06,0,0,0,,,,
2.62E+06,0,0,0,,,,
2.88E+06,0,0,0,,,,
3.15E+06,0,0,0,,,,
3.41E+06,0,0,0,,,,
3.67E+06,0,0,0,,,,
3.93E+06,0,0,0,,,,
4.19E+06,0,0,0,,,,
4.72E+06,0,0,0,,,,
5.24E+06,0,0,0,,,,
5.77E+06,0,0,0,,,,
6.29E+06,0,0,0,,,,
6.82E+06,0,0,0,,,,
7.34E+06,0,0,0,,,,
7.86E+06,0,0,0,,,,
8.39E+06,0,0,0,,,,
9.44E+06,0,0,0,,,,
1.05E+07,0,0,0,,,,
1.15E+07,0,0,0,,,,
1.26E+07,0,0,0,,,,
1.36E+07,0,0,0,,,,
1.47E+07,0,0,0,,,,
1.57E+07,0,0,0,,,,
1.68E+07,0,0,0,,,,
1.89E+07,0,0,0,,,,
2.10E+07,0,0,0,,,,
2.31E+07,0,0,0,,,,
2.52E+07,0,0,0,,,,
2.73E+07,0,0,0,,,,
2.94E+07,0,0,0,,,,
3.15E+07,0,0,0,,,,
3.36E+07,0,0,0,,,,
3.77E+07,0,0,0,,,,
4.19E+07,0,0,0,,,,
4.61E+07,0,0,0,,,,
5.03E+07,0,0,0,,,,
5.45E+07,0,0,0,,,,
5.87E+07,0,0,0,,,,