X Lag Time,Record 1: JJmAb1_01mg_PS2_500ug_200rpm_10-00min_ST_No2 1,Record 2: JJmAb1_01mg_PS2_500ug_200rpm_10-00min_ST_No2 2,Record 3: JJmAb1_01mg_PS2_500ug_200rpm_10-00min_ST_No2 3,X Intensity,Record 1: JJmAb1_01mg_PS2_500ug_200rpm_10-00min_ST_No2 1,Record 2: JJmAb1_01mg_PS2_500ug_200rpm_10-00min_ST_No2 2,Record 3: JJmAb1_01mg_PS2_500ug_200rpm_10-00min_ST_No2 3
0.5,0.828,0.827,0.833,0.4,0,0,0
1,0.814,0.816,0.819,0.463,0,0,0
1.5,0.803,0.798,0.803,0.536,0,0,0
2,0.787,0.785,0.79,0.621,0,0,0
2.5,0.774,0.774,0.773,0.719,0,0,0
3,0.762,0.763,0.761,0.833,0,0,0
3.5,0.753,0.75,0.752,0.965,0,0,0
4,0.74,0.743,0.737,1.12,0,0,0
4.5,0.73,0.731,0.727,1.29,0,0,0
5.5,0.71,0.713,0.707,1.5,0,0,0
6.5,0.693,0.692,0.687,1.74,0,0,0
7.5,0.673,0.678,0.67,2.01,0,0,0
8.5,0.658,0.661,0.652,2.33,0,0,0
9.5,0.644,0.646,0.637,2.7,0,0,0
10.5,0.63,0.633,0.619,3.12,0,0,0
11.5,0.615,0.62,0.607,3.62,0,0,0
12.5,0.601,0.606,0.594,4.19,0,0,0
14.5,0.577,0.582,0.567,4.85,0,0,0
16.5,0.553,0.558,0.542,5.61,0,0,0
18.5,0.533,0.538,0.52,6.5,0,0,0
20.5,0.511,0.515,0.498,7.53,0,0.526,1.15
22.5,0.492,0.5,0.477,8.72,2.12,2.58,3.53
24.5,0.475,0.482,0.46,10.1,5.96,5.53,6.35
26.5,0.46,0.465,0.442,11.7,9.5,8.19,8.64
28.5,0.444,0.45,0.426,13.5,11,9.54,9.61
32.5,0.416,0.422,0.398,15.7,9.69,9.15,8.98
36.5,0.391,0.398,0.371,18.2,6.44,7.25,7.01
40.5,0.37,0.375,0.348,21,2.83,4.61,4.38
44.5,0.35,0.357,0.329,24.4,0.482,2.13,1.95
48.5,0.332,0.339,0.311,28.2,0,0.528,0.431
52.5,0.317,0.324,0.293,32.7,0,0,0
56.5,0.302,0.31,0.28,37.8,0,0,0
60.5,0.29,0.298,0.267,43.8,0,0,0
68.5,0.268,0.276,0.245,50.7,0,0,0
76.5,0.25,0.258,0.227,58.8,0,0,0
84.5,0.236,0.244,0.213,68.1,0,0.047,0
92.5,0.224,0.23,0.2,78.8,0,0.262,0
101,0.213,0.22,0.189,91.3,0,0.614,0.228
109,0.204,0.211,0.179,106,0.481,1.03,0.979
117,0.197,0.203,0.17,122,1.46,1.44,2.18
125,0.19,0.197,0.164,142,2.69,1.83,3.55
141,0.179,0.185,0.152,164,3.88,2.2,4.8
157,0.17,0.177,0.144,190,4.79,2.57,5.66
173,0.163,0.169,0.135,220,5.27,2.95,5.97
189,0.156,0.162,0.128,255,5.3,3.33,5.72
205,0.148,0.156,0.122,295,4.93,3.69,4.98
221,0.143,0.15,0.116,342,4.26,3.96,3.92
237,0.138,0.145,0.111,396,3.42,4.1,2.73
253,0.133,0.141,0.107,459,2.53,4.06,1.62
285,0.124,0.132,0.0982,531,1.7,3.82,0.748
317,0.117,0.125,0.0891,615,1,3.38,0.21
349,0.108,0.118,0.0834,712,0.482,2.78,0
381,0.101,0.112,0.0765,825,0.151,2.09,0
413,0.0945,0.108,0.0715,955,0,1.4,0
4.45E+02,0.0898,0.102,0.0671,1.11E+03,0,0.792,0
4.77E+02,0.0851,0.0976,0.063,1.28E+03,0.114,0.342,0
5.09E+02,0.0815,0.0924,0.0588,1.48E+03,0.305,0.0848,0
5.73E+02,0.073,0.0845,0.0511,1.72E+03,0.535,0,0
6.37E+02,0.0651,0.0784,0.0444,1.99E+03,0.77,0,0
7.01E+02,0.0605,0.0734,0.0395,2.30E+03,0.979,0,0.0453
7.65E+02,0.0543,0.0681,0.0351,2.67E+03,1.14,0,0.179
8.29E+02,0.0493,0.0622,0.0313,3.09E+03,1.24,0.0892,0.399
8.93E+02,0.0449,0.0572,0.0288,3.58E+03,1.27,0.305,0.672
9.57E+02,0.0423,0.053,0.0267,4.15E+03,1.23,0.62,0.945
1.02E+03,0.0403,0.0501,0.0227,4.80E+03,1.12,0.963,1.16
1.15E+03,0.0358,0.0455,0.0199,5.56E+03,0.956,1.24,1.26
1.28E+03,0.0299,0.0396,0.0169,6.44E+03,0,0,0
1.40E+03,0.0263,0.0356,0.0149,7.46E+03,0,0,0
1.53E+03,0.023,0.033,0.0135,8.63E+03,0,0,0
1.66E+03,0.0205,0.0293,0.0137,,,,
1.79E+03,0.0177,0.0257,0.0133,,,,
1.92E+03,0.0158,0.0226,0.0103,,,,
2.04E+03,0.0141,0.0215,0.01,,,,
2.30E+03,0.0134,0.0178,0.00873,,,,
2.56E+03,0.0118,0.0153,0.00735,,,,
2.81E+03,0.0099,0.0134,0.00533,,,,
3.07E+03,0.00767,0.0129,0.00417,,,,
3.32E+03,0.00645,0.0127,0.00375,,,,
3.58E+03,0.0075,0.0127,0.00325,,,,
3.84E+03,0.00627,0.011,0.00351,,,,
4.09E+03,0.00628,0.0121,0.00369,,,,
4.60E+03,0.00645,0.0125,0.00186,,,,
5.12E+03,0.00595,0.0108,0.00348,,,,
5.63E+03,0.00469,0.0115,0.00177,,,,
6.14E+03,0.00389,0.0109,0.00105,,,,
6.65E+03,0.00386,0.0104,0.000926,,,,
7.16E+03,0.00241,0.00989,0.00155,,,,
7.68E+03,0.00179,0.00913,0.00102,,,,
8.19E+03,0.00267,0.0098,0.00158,,,,
9.21E+03,0.00289,0.00923,0.0029,,,,
1.02E+04,0.00297,0.00842,0.00105,,,,
1.13E+04,0.00302,0.00956,0.00281,,,,
1.23E+04,0.00287,0.0103,0.00307,,,,
1.33E+04,0.00304,0.0108,0.0034,,,,
1.43E+04,0.00287,0.0113,0.00265,,,,
1.54E+04,0.00313,0.0108,0.0022,,,,
1.64E+04,0.00397,0.00908,0.00348,,,,
1.84E+04,0.00412,0.0093,0.00333,,,,
2.05E+04,0.00406,0.0103,0.00234,,,,
2.25E+04,0.00302,0.00887,0.00178,,,,
2.46E+04,0.00337,0.00676,0.000788,,,,
2.66E+04,0.003,0.00745,0.00133,,,,
2.87E+04,0.00423,0.00757,0.00196,,,,
3.07E+04,0.00332,0.0087,0.00188,,,,
3.28E+04,0.00303,0.00897,0.00251,,,,
3.69E+04,0.00321,0.00948,0.00139,,,,
4.10E+04,0.00307,0.00891,0.0025,,,,
4.51E+04,0.00294,0.00729,0.00296,,,,
4.91E+04,0.00352,0.00716,0.0011,,,,
5.32E+04,0.00242,0.0073,0.00237,,,,
5.73E+04,0.00234,0.00802,0.00255,,,,
6.14E+04,0.000665,0.0075,0.00249,,,,
6.55E+04,0.00223,0.00798,0.00243,,,,
7.37E+04,0.00304,0.00829,0.00261,,,,
8.19E+04,0.00351,0.00694,0.0017,,,,
9.01E+04,0.00222,0.00742,0.00184,,,,
9.83E+04,0.00161,0.0077,0.00212,,,,
1.06E+05,0.00227,0.00782,0.00114,,,,
1.15E+05,0.00256,0.00824,0.00231,,,,
1.23E+05,0.00344,0.00714,0.00161,,,,
1.31E+05,0.00346,0.00826,0.00226,,,,
1.47E+05,0.00293,0.00676,0.0017,,,,
1.64E+05,0.00311,0.0076,0.00194,,,,
1.80E+05,0.0023,0.00706,0.00138,,,,
1.97E+05,0.00173,0.00776,0.000849,,,,
2.13E+05,0.00209,0.007,0.000982,,,,
2.29E+05,0.00155,0.00729,0.00138,,,,
2.46E+05,0.00196,0.00628,0.00158,,,,
2.62E+05,0.00241,0.0071,0.00195,,,,
2.95E+05,0.00311,0.00603,0.00141,,,,
3.28E+05,0.00209,0.00581,0.000394,,,,
3.60E+05,0.00218,0.00628,0.000723,,,,
3.93E+05,0.00258,0.00633,0.000785,,,,
4.26E+05,0.00273,0.00558,0.00106,,,,
4.59E+05,0.00226,0.00647,0.000664,,,,
4.92E+05,0.0027,0.00573,0.00138,,,,
5.24E+05,0.00372,0.00391,0.000502,,,,
5.90E+05,0.00382,0.00448,0.000531,,,,
6.55E+05,0.00346,0.00351,0.00078,,,,
7.21E+05,0.00277,0.00337,0.0012,,,,
7.86E+05,0.00234,0.00346,0.00118,,,,
8.52E+05,0.0028,0.00203,0.00143,,,,
9.18E+05,0.00357,0.00173,0.00144,,,,
9.83E+05,0.00345,0.00154,0.00125,,,,
1.05E+06,0.00257,0.00222,9.55E-05,,,,
1.18E+06,0.0047,0.00201,0.00057,,,,
1.31E+06,0.00676,0.00139,0.00055,,,,
1.44E+06,0.00656,0.00193,0.000387,,,,
1.57E+06,0.00715,0.00146,0.000382,,,,
1.70E+06,0.0077,0.00139,0.000659,,,,
1.84E+06,0.00755,0.00114,0.000464,,,,
1.97E+06,0.00833,0.0005,0.000107,,,,
2.10E+06,0,0,0,,,,
2.36E+06,0,0,0,,,,
2.62E+06,0,0,0,,,,
2.88E+06,0,0,0,,,,
3.15E+06,0,0,0,,,,
3.41E+06,0,0,0,,,,
3.67E+06,0,0,0,,,,
3.93E+06,0,0,0,,,,
4.19E+06,0,0,0,,,,
4.72E+06,0,0,0,,,,
5.24E+06,0,0,0,,,,
5.77E+06,0,0,0,,,,
6.29E+06,0,0,0,,,,
6.82E+06,0,0,0,,,,
7.34E+06,0,0,0,,,,
7.86E+06,0,0,0,,,,
8.39E+06,0,0,0,,,,
9.44E+06,0,0,0,,,,
1.05E+07,0,0,0,,,,
1.15E+07,0,0,0,,,,
1.26E+07,0,0,0,,,,
1.36E+07,0,0,0,,,,
1.47E+07,0,0,0,,,,
1.57E+07,0,0,0,,,,
1.68E+07,0,0,0,,,,
1.89E+07,0,0,0,,,,
2.10E+07,0,0,0,,,,
2.31E+07,0,0,0,,,,
2.52E+07,0,0,0,,,,
2.73E+07,0,0,0,,,,
2.94E+07,0,0,0,,,,
3.15E+07,0,0,0,,,,
3.36E+07,0,0,0,,,,
3.77E+07,0,0,0,,,,
4.19E+07,0,0,0,,,,
4.61E+07,0,0,0,,,,
5.03E+07,0,0,0,,,,
5.45E+07,0,0,0,,,,
5.87E+07,0,0,0,,,,