Lag Time [us], Corr. 1.1 [-], Corr 1.2 [-], Corr. 1.3 [-], Corr. 2.1 [-], Corr. 2.2 [-], Corr. 2.3 [-], ...
5.000000000000000000e-01,7.930000000000000382e-01,7.940000000000000391e-01,7.930000000000000382e-01
1.000000000000000000e+00,7.640000000000000124e-01,7.690000000000000169e-01,7.710000000000000187e-01
1.500000000000000000e+00,7.389999999999999902e-01,7.389999999999999902e-01,7.419999999999999929e-01
2.000000000000000000e+00,7.109999999999999654e-01,7.119999999999999662e-01,7.169999999999999707e-01
2.500000000000000000e+00,6.899999999999999467e-01,6.909999999999999476e-01,6.919999999999999485e-01
3.000000000000000000e+00,6.690000000000000391e-01,6.690000000000000391e-01,6.720000000000000417e-01
3.500000000000000000e+00,6.480000000000000204e-01,6.490000000000000213e-01,6.550000000000000266e-01
4.000000000000000000e+00,6.290000000000000036e-01,6.290000000000000036e-01,6.350000000000000089e-01
4.500000000000000000e+00,6.109999999999999876e-01,6.129999999999999893e-01,6.169999999999999929e-01
5.500000000000000000e+00,5.779999999999999583e-01,5.789999999999999591e-01,5.829999999999999627e-01
6.500000000000000000e+00,5.470000000000000417e-01,5.490000000000000435e-01,5.550000000000000488e-01
7.500000000000000000e+00,5.190000000000000169e-01,5.200000000000000178e-01,5.240000000000000213e-01
8.500000000000000000e+00,4.929999999999999938e-01,4.949999999999999956e-01,5.000000000000000000e-01
9.500000000000000000e+00,4.680000000000000271e-01,4.699999999999999734e-01,4.759999999999999787e-01
1.050000000000000000e+01,4.440000000000000058e-01,4.470000000000000084e-01,4.530000000000000138e-01
1.150000000000000000e+01,4.229999999999999871e-01,4.239999999999999880e-01,4.299999999999999933e-01
1.250000000000000000e+01,4.010000000000000231e-01,4.050000000000000266e-01,4.109999999999999765e-01
1.450000000000000000e+01,3.649999999999999911e-01,3.669999999999999929e-01,3.750000000000000000e-01
1.650000000000000000e+01,3.300000000000000155e-01,3.340000000000000191e-01,3.400000000000000244e-01
1.850000000000000000e+01,2.999999999999999889e-01,3.029999999999999916e-01,3.099999999999999978e-01
2.050000000000000000e+01,2.720000000000000195e-01,2.750000000000000222e-01,2.829999999999999738e-01
2.250000000000000000e+01,2.489999999999999991e-01,2.500000000000000000e-01,2.580000000000000071e-01
2.450000000000000000e+01,2.260000000000000064e-01,2.290000000000000091e-01,2.349999999999999867e-01
2.650000000000000000e+01,2.049999999999999878e-01,2.089999999999999913e-01,2.149999999999999967e-01
2.850000000000000000e+01,1.869999999999999996e-01,1.910000000000000031e-01,1.970000000000000084e-01
3.250000000000000000e+01,1.539999999999999980e-01,1.580000000000000016e-01,1.660000000000000087e-01
3.650000000000000000e+01,1.290000000000000036e-01,1.310000000000000053e-01,1.390000000000000124e-01
4.050000000000000000e+01,1.069999999999999979e-01,1.089999999999999997e-01,1.179999999999999938e-01
4.450000000000000000e+01,8.859999999999999820e-02,9.089999999999999469e-02,9.900000000000000466e-02
4.850000000000000000e+01,7.420000000000000207e-02,7.689999999999999614e-02,8.279999999999999860e-02
5.250000000000000000e+01,6.130000000000000032e-02,6.469999999999999363e-02,7.090000000000000469e-02
5.650000000000000000e+01,5.140000000000000124e-02,5.539999999999999786e-02,6.010000000000000064e-02
6.050000000000000000e+01,4.379999999999999866e-02,4.730000000000000177e-02,5.109999999999999959e-02
6.850000000000000000e+01,3.130000000000000143e-02,3.459999999999999881e-02,3.729999999999999982e-02
7.650000000000000000e+01,2.359999999999999945e-02,2.489999999999999852e-02,2.719999999999999848e-02
8.450000000000000000e+01,1.789999999999999925e-02,1.930000000000000118e-02,1.949999999999999997e-02
9.250000000000000000e+01,1.310000000000000053e-02,1.439999999999999961e-02,1.510000000000000057e-02
1.010000000000000000e+02,1.020000000000000073e-02,1.149999999999999981e-02,1.119999999999999989e-02
1.090000000000000000e+02,8.689999999999999808e-03,8.880000000000000740e-03,8.410000000000000808e-03
1.170000000000000000e+02,5.989999999999999665e-03,7.420000000000000380e-03,8.130000000000000074e-03
1.250000000000000000e+02,4.550000000000000225e-03,5.700000000000000205e-03,5.950000000000000427e-03
1.410000000000000000e+02,2.650000000000000012e-03,3.700000000000000164e-03,4.850000000000000144e-03
1.570000000000000000e+02,2.769999999999999893e-03,2.129999999999999949e-03,3.680000000000000111e-03
1.730000000000000000e+02,2.119999999999999923e-03,5.980000000000000072e-04,2.820000000000000024e-03
1.890000000000000000e+02,1.809999999999999977e-03,1.510000000000000112e-04,2.769999999999999893e-03
2.050000000000000000e+02,1.119999999999999902e-03,2.139999999999999975e-04,2.060000000000000199e-03
2.210000000000000000e+02,1.090000000000000040e-03,1.669999999999999935e-04,2.550000000000000183e-03
2.370000000000000000e+02,7.079999999999999705e-04,3.970000000000000005e-04,2.259999999999999856e-03
2.530000000000000000e+02,6.359999999999999551e-04,4.989999999999999861e-04,2.380000000000000171e-03
2.850000000000000000e+02,4.350000000000000026e-04,1.059999999999999961e-03,1.190000000000000085e-03
3.170000000000000000e+02,3.260000000000000094e-04,1.399999999999999986e-03,9.859999999999998974e-04
3.490000000000000000e+02,6.049999999999999606e-04,1.760000000000000063e-03,3.229999999999999907e-04
3.810000000000000000e+02,3.879999999999999985e-04,1.280000000000000105e-03,0.000000000000000000e+00
4.130000000000000000e+02,4.699999999999999859e-04,1.420000000000000092e-04,5.699999999999999772e-04
4.450000000000000000e+02,3.910000000000000172e-04,2.869999999999999830e-04,9.920000000000000432e-04
4.770000000000000000e+02,6.319999999999999663e-04,7.979999999999999897e-04,1.289999999999999914e-03
5.090000000000000000e+02,6.579999999999999478e-04,7.079999999999999705e-04,1.280000000000000105e-03
5.730000000000000000e+02,4.719999999999999803e-04,9.899999999999999946e-04,3.719999999999999891e-04
6.370000000000000000e+02,3.739999999999999835e-04,7.140000000000000079e-04,2.919999999999999961e-04
7.010000000000000000e+02,2.300000000000000070e-04,8.589999999999999546e-04,6.499999999999999702e-04
7.650000000000000000e+02,3.579999999999999741e-04,8.930000000000000221e-04,1.020000000000000073e-03
8.290000000000000000e+02,7.249999999999999500e-04,1.559999999999999972e-04,1.730000000000000038e-04
8.930000000000000000e+02,3.879999999999999985e-04,1.440000000000000091e-03,2.300000000000000070e-04
9.570000000000000000e+02,1.309999999999999967e-03,1.299999999999999940e-03,1.020000000000000073e-03
1.020000000000000000e+03,1.360000000000000098e-03,1.010000000000000047e-03,1.049999999999999935e-03
1.150000000000000000e+03,1.740000000000000010e-04,4.449999999999999746e-04,3.390000000000000001e-04
1.280000000000000000e+03,9.820000000000000170e-04,4.679999999999999915e-04,3.359999999999999814e-04
1.400000000000000000e+03,2.669999999999999847e-04,4.569999999999999952e-04,6.759999999999999516e-04
1.530000000000000000e+03,0.000000000000000000e+00,1.190000000000000085e-03,1.030000000000000100e-03
1.660000000000000000e+03,3.849999999999999798e-04,1.489999999999999897e-04,4.920000000000000328e-04
1.790000000000000000e+03,2.489999999999999877e-05,2.829999999999999942e-04,6.629999999999999609e-04
1.920000000000000000e+03,1.119999999999999983e-04,1.080000000000000014e-03,6.859999999999999779e-04
2.040000000000000000e+03,3.130000000000000187e-05,5.159999999999999656e-04,2.220000000000000022e-04
2.300000000000000000e+03,4.580000000000000195e-04,8.270000000000000441e-04,1.800000000000000113e-04
2.560000000000000000e+03,3.260000000000000094e-04,6.579999999999999478e-04,1.830000000000000029e-04
2.810000000000000000e+03,4.139999999999999800e-04,5.190000000000000284e-06,5.349999999999999938e-04
3.070000000000000000e+03,3.860000000000000041e-04,2.599999999999999772e-04,1.010000000000000047e-03
3.320000000000000000e+03,4.090000000000000211e-04,5.320000000000000293e-04,9.520000000000000467e-04
3.580000000000000000e+03,3.480000000000000020e-04,4.009999999999999893e-04,5.010000000000000347e-04
3.840000000000000000e+03,2.770000000000000110e-04,0.000000000000000000e+00,3.440000000000000132e-04
4.090000000000000000e+03,2.010000000000000068e-04,6.459999999999999983e-06,6.070000000000000092e-04
4.600000000000000000e+03,3.660000000000000059e-04,4.719999999999999803e-04,6.210000000000000242e-04
5.120000000000000000e+03,5.570000000000000034e-06,3.029999999999999924e-04,3.260000000000000094e-04
5.630000000000000000e+03,7.650000000000000279e-05,2.259999999999999910e-04,1.279999999999999942e-04
6.140000000000000000e+03,4.949999999999999973e-04,6.480000000000000300e-05,3.829999999999999854e-04
6.650000000000000000e+03,6.059999999999999849e-04,6.809999999999999647e-04,3.449999999999999833e-04
7.160000000000000000e+03,9.169999999999999549e-04,5.010000000000000347e-04,5.819999999999999843e-05
7.680000000000000000e+03,1.000000000000000048e-04,4.970000000000000459e-04,3.910000000000000172e-04
8.190000000000000000e+03,1.900000000000000105e-04,3.710000000000000190e-04,1.399999999999999877e-04
9.210000000000000000e+03,2.229999999999999994e-05,6.669999999999999497e-05,2.329999999999999986e-04
1.020000000000000000e+04,2.130000000000000003e-04,1.119999999999999983e-04,1.969999999999999909e-04
1.130000000000000000e+04,9.799999999999999684e-05,3.660000000000000059e-04,2.579999999999999828e-04
1.230000000000000000e+04,2.079999999999999872e-04,1.200000000000000030e-04,3.029999999999999924e-04
1.330000000000000000e+04,1.469999999999999953e-04,2.550000000000000183e-04,1.740000000000000010e-04
1.430000000000000000e+04,1.289999999999999914e-04,1.250000000000000026e-04,7.759999999999999971e-04
1.540000000000000000e+04,1.349999999999999949e-05,2.570000000000000127e-04,4.530000000000000064e-04
1.640000000000000000e+04,1.430000000000000064e-04,3.449999999999999833e-04,4.380000000000000213e-04
1.840000000000000000e+04,3.370000000000000057e-04,4.939999999999999730e-04,2.629999999999999959e-04
2.050000000000000000e+04,1.219999999999999974e-04,1.600000000000000131e-04,1.379999999999999933e-04
2.250000000000000000e+04,1.430000000000000064e-04,3.139999999999999888e-04,9.170000000000000633e-05
2.460000000000000000e+04,1.859999999999999945e-04,1.399999999999999877e-04,6.380000000000000580e-05
2.660000000000000000e+04,1.510000000000000112e-04,8.959999999999999595e-05,1.259999999999999998e-04
2.870000000000000000e+04,2.269999999999999882e-04,4.000000000000000192e-04,1.110000000000000011e-04
3.070000000000000000e+04,3.330000000000000169e-04,1.289999999999999914e-04,1.340000000000000045e-04
3.280000000000000000e+04,1.430000000000000064e-04,2.249999999999999938e-04,1.140000000000000063e-04
3.690000000000000000e+04,5.560000000000000299e-05,5.679999999999999828e-05,2.229999999999999994e-04
4.100000000000000000e+04,8.440000000000000507e-05,1.150000000000000035e-04,3.410000000000000216e-05
4.510000000000000000e+04,1.669999999999999935e-04,1.869999999999999917e-04,3.490000000000000263e-04
4.910000000000000000e+04,2.020000000000000040e-04,6.069999999999999821e-05,1.480000000000000060e-05
5.320000000000000000e+04,3.359999999999999679e-05,1.350000000000000017e-04,7.399999999999999623e-05
5.730000000000000000e+04,9.509999999999999411e-05,2.460000000000000164e-04,1.210000000000000002e-04
6.140000000000000000e+04,1.219999999999999974e-04,1.679999999999999907e-04,2.920000000000000164e-05
6.550000000000000000e+04,3.159999999999999832e-04,9.170000000000000633e-05,5.080000000000000151e-05
7.370000000000000000e+04,1.289999999999999914e-04,1.340000000000000045e-04,6.150000000000000410e-05
8.190000000000000000e+04,1.269999999999999970e-04,8.409999999999999778e-05,1.630000000000000047e-04
9.010000000000000000e+04,2.269999999999999882e-04,4.949999999999999702e-05,1.759999999999999954e-04
9.830000000000000000e+04,2.539999999999999940e-04,7.459999999999999726e-05,2.220000000000000022e-04
1.060000000000000000e+05,6.179999999999999784e-05,6.750000000000000086e-05,2.530000000000000239e-04
1.150000000000000000e+05,2.420000000000000005e-04,4.539999999999999900e-05,1.629999999999999979e-05
1.230000000000000000e+05,8.220000000000000581e-05,2.960000000000000120e-05,1.029999999999999964e-04
1.310000000000000000e+05,1.659999999999999963e-04,7.469999999999999969e-05,1.410000000000000120e-04
1.470000000000000000e+05,1.299999999999999886e-04,1.640000000000000019e-04,6.839999999999999563e-05
1.640000000000000000e+05,7.090000000000000219e-05,2.529999999999999833e-05,6.980000000000000256e-05
1.800000000000000000e+05,3.459999999999999907e-06,2.730000000000000222e-04,1.640000000000000019e-04
1.970000000000000000e+05,9.260000000000000110e-05,1.350000000000000017e-04,8.579999999999999845e-05
2.130000000000000000e+05,6.970000000000000013e-05,1.749999999999999982e-04,8.380000000000000404e-05
2.290000000000000000e+05,4.509999999999999849e-05,6.090000000000000307e-05,2.249999999999999938e-04
2.460000000000000000e+05,9.909999999999999986e-06,5.009999999999999805e-05,4.419999999999999694e-05
2.620000000000000000e+05,1.910000000000000077e-04,3.069999999999999812e-04,1.710000000000000094e-04
2.950000000000000000e+05,1.630000000000000047e-04,1.050000000000000044e-04,1.340000000000000045e-04
3.280000000000000000e+05,4.539999999999999900e-05,1.499999999999999869e-04,1.479999999999999925e-04
3.600000000000000000e+05,1.740000000000000010e-04,3.020000000000000223e-04,1.640000000000000019e-04
3.930000000000000000e+05,3.490000000000000263e-04,5.360000000000000181e-04,1.600000000000000131e-04
4.260000000000000000e+05,2.530000000000000239e-04,3.429999999999999889e-04,1.869999999999999917e-04
4.590000000000000000e+05,3.539999999999999853e-04,1.589999999999999888e-04,1.649999999999999991e-04
4.920000000000000000e+05,2.910000000000000260e-04,2.610000000000000015e-04,1.320000000000000101e-04
5.240000000000000000e+05,2.280000000000000126e-04,4.400000000000000157e-04,0.000000000000000000e+00
5.900000000000000000e+05,1.090000000000000067e-04,4.119999999999999856e-04,1.119999999999999983e-04
6.550000000000000000e+05,6.519999999999999917e-05,2.680000000000000090e-04,3.570000000000000040e-04
7.210000000000000000e+05,4.120000000000000364e-06,3.680000000000000003e-04,1.259999999999999998e-04
7.860000000000000000e+05,6.229999999999999644e-05,2.480000000000000108e-04,6.250000000000000130e-05
8.520000000000000000e+05,7.810000000000000102e-05,1.499999999999999869e-04,0.000000000000000000e+00
9.180000000000000000e+05,5.660000000000000019e-05,2.229999999999999994e-04,6.959999999999999770e-05
9.830000000000000000e+05,7.310000000000000146e-05,1.520000000000000084e-04,1.910000000000000077e-04
1.050000000000000000e+06,4.949999999999999973e-04,5.360000000000000181e-04,3.390000000000000001e-04
1.180000000000000000e+06,7.370000000000000249e-04,2.519999999999999996e-04,9.990000000000000236e-05
1.310000000000000000e+06,5.839999999999999922e-04,3.449999999999999833e-04,2.790000000000000054e-05
1.440000000000000000e+06,6.920000000000000153e-04,5.580000000000000107e-04,1.489999999999999897e-04
1.570000000000000000e+06,7.579999999999999932e-04,2.310000000000000042e-04,5.879999999999999946e-05
1.700000000000000000e+06,3.589999999999999984e-04,2.200000000000000078e-04,1.069999999999999988e-04
1.840000000000000000e+06,2.239999999999999966e-04,8.499999999999999526e-04,2.509999999999999753e-04
1.970000000000000000e+06,3.469999999999999777e-04,5.479999999999999845e-04,6.050000000000000012e-05
2.100000000000000000e+06,0.000000000000000000e+00,0.000000000000000000e+00,0.000000000000000000e+00
2.360000000000000000e+06,0.000000000000000000e+00,0.000000000000000000e+00,0.000000000000000000e+00
2.620000000000000000e+06,0.000000000000000000e+00,0.000000000000000000e+00,0.000000000000000000e+00
2.880000000000000000e+06,0.000000000000000000e+00,0.000000000000000000e+00,0.000000000000000000e+00
3.150000000000000000e+06,0.000000000000000000e+00,0.000000000000000000e+00,0.000000000000000000e+00
3.410000000000000000e+06,0.000000000000000000e+00,0.000000000000000000e+00,0.000000000000000000e+00
3.670000000000000000e+06,0.000000000000000000e+00,0.000000000000000000e+00,0.000000000000000000e+00
3.930000000000000000e+06,0.000000000000000000e+00,0.000000000000000000e+00,0.000000000000000000e+00
4.190000000000000000e+06,0.000000000000000000e+00,0.000000000000000000e+00,0.000000000000000000e+00
4.720000000000000000e+06,0.000000000000000000e+00,0.000000000000000000e+00,0.000000000000000000e+00
5.240000000000000000e+06,0.000000000000000000e+00,0.000000000000000000e+00,0.000000000000000000e+00
5.770000000000000000e+06,0.000000000000000000e+00,0.000000000000000000e+00,0.000000000000000000e+00
6.290000000000000000e+06,0.000000000000000000e+00,0.000000000000000000e+00,0.000000000000000000e+00
6.820000000000000000e+06,0.000000000000000000e+00,0.000000000000000000e+00,0.000000000000000000e+00
7.340000000000000000e+06,0.000000000000000000e+00,0.000000000000000000e+00,0.000000000000000000e+00
7.860000000000000000e+06,0.000000000000000000e+00,0.000000000000000000e+00,0.000000000000000000e+00
8.390000000000000000e+06,0.000000000000000000e+00,0.000000000000000000e+00,0.000000000000000000e+00
9.440000000000000000e+06,0.000000000000000000e+00,0.000000000000000000e+00,0.000000000000000000e+00
1.050000000000000000e+07,0.000000000000000000e+00,0.000000000000000000e+00,0.000000000000000000e+00
1.150000000000000000e+07,0.000000000000000000e+00,0.000000000000000000e+00,0.000000000000000000e+00
1.260000000000000000e+07,0.000000000000000000e+00,0.000000000000000000e+00,0.000000000000000000e+00
1.360000000000000000e+07,0.000000000000000000e+00,0.000000000000000000e+00,0.000000000000000000e+00
1.470000000000000000e+07,0.000000000000000000e+00,0.000000000000000000e+00,0.000000000000000000e+00
1.570000000000000000e+07,0.000000000000000000e+00,0.000000000000000000e+00,0.000000000000000000e+00
1.680000000000000000e+07,0.000000000000000000e+00,0.000000000000000000e+00,0.000000000000000000e+00
1.890000000000000000e+07,0.000000000000000000e+00,0.000000000000000000e+00,0.000000000000000000e+00
2.100000000000000000e+07,0.000000000000000000e+00,0.000000000000000000e+00,0.000000000000000000e+00
2.310000000000000000e+07,0.000000000000000000e+00,0.000000000000000000e+00,0.000000000000000000e+00
2.520000000000000000e+07,0.000000000000000000e+00,0.000000000000000000e+00,0.000000000000000000e+00
2.730000000000000000e+07,0.000000000000000000e+00,0.000000000000000000e+00,0.000000000000000000e+00
2.940000000000000000e+07,0.000000000000000000e+00,0.000000000000000000e+00,0.000000000000000000e+00
3.150000000000000000e+07,0.000000000000000000e+00,0.000000000000000000e+00,0.000000000000000000e+00
3.360000000000000000e+07,0.000000000000000000e+00,0.000000000000000000e+00,0.000000000000000000e+00
3.770000000000000000e+07,0.000000000000000000e+00,0.000000000000000000e+00,0.000000000000000000e+00
4.190000000000000000e+07,0.000000000000000000e+00,0.000000000000000000e+00,0.000000000000000000e+00
4.610000000000000000e+07,0.000000000000000000e+00,0.000000000000000000e+00,0.000000000000000000e+00
5.030000000000000000e+07,0.000000000000000000e+00,0.000000000000000000e+00,0.000000000000000000e+00
5.450000000000000000e+07,0.000000000000000000e+00,0.000000000000000000e+00,0.000000000000000000e+00
5.870000000000000000e+07,0.000000000000000000e+00,0.000000000000000000e+00,0.000000000000000000e+00
