X Lag Time,Record 1: JJ1_01mg_PS2_500ug_200rpm_10-00min_ST_No4 1,Record 2: JJ1_01mg_PS2_500ug_200rpm_10-00min_ST_No4 2,Record 3: JJ1_01mg_PS2_500ug_200rpm_10-00min_ST_No4 3,X Intensity,Record 1: JJ1_01mg_PS2_500ug_200rpm_10-00min_ST_No4 1,Record 2: JJ1_01mg_PS2_500ug_200rpm_10-00min_ST_No4 2,Record 3: JJ1_01mg_PS2_500ug_200rpm_10-00min_ST_No4 3
0.5,0.818,0.218,0.664,0.4,0,0,0
1,0.807,0.219,0.659,0.463,0,0,0
1.5,0.788,0.216,0.653,0.536,0,0,0
2,0.776,0.213,0.646,0.621,0,0,0
2.5,0.766,0.212,0.638,0.719,0,0,0
3,0.749,0.208,0.634,0.833,0,0,0
3.5,0.74,0.207,0.628,0.965,0,0,0
4,0.727,0.204,0.624,1.12,0,0,0
4.5,0.717,0.202,0.617,1.29,0,0,0
5.5,0.698,0.199,0.608,1.5,0,0,0
6.5,0.677,0.196,0.599,1.74,0,0,0
7.5,0.662,0.193,0.591,2.01,0,0,0
8.5,0.641,0.189,0.582,2.33,0,0,0
9.5,0.629,0.187,0.575,2.7,0,0,0
10.5,0.613,0.185,0.568,3.12,0,0,0
11.5,0.599,0.182,0.559,3.62,0,0,0
12.5,0.585,0.18,0.553,4.19,0,0,0
14.5,0.56,0.175,0.54,4.85,0,0,0
16.5,0.536,0.171,0.528,5.61,0,0,0
18.5,0.514,0.167,0.517,6.5,0,0.376,0
20.5,0.493,0.164,0.506,7.53,0.172,1.51,0
22.5,0.474,0.16,0.496,8.72,2.75,3.16,1.88
24.5,0.456,0.158,0.486,10.1,6.89,4.82,5.3
26.5,0.439,0.155,0.477,11.7,10.6,5.96,8.27
28.5,0.424,0.151,0.469,13.5,12.2,6.28,9.1
32.5,0.396,0.146,0.452,15.7,11.1,5.71,7.43
36.5,0.369,0.142,0.438,18.2,7.9,4.47,4.26
40.5,0.347,0.138,0.425,21,4,2.92,1.34
44.5,0.328,0.134,0.414,24.4,1.08,1.48,0
48.5,0.309,0.13,0.404,28.2,0,0.459,0
52.5,0.294,0.127,0.394,32.7,0,0,0
56.5,0.279,0.125,0.386,37.8,0,0,0
60.5,0.267,0.122,0.379,43.8,0,0.374,0
68.5,0.246,0.118,0.365,50.7,0,0.982,0.167
76.5,0.228,0.115,0.354,58.8,0,1.6,1.09
84.5,0.213,0.112,0.345,68.1,0,1.99,2.21
92.5,0.2,0.109,0.336,78.8,0,2.04,2.76
101,0.189,0.107,0.329,91.3,0.741,1.72,2.35
109,0.18,0.105,0.323,106,2.35,1.16,1.28
117,0.173,0.103,0.318,122,4.38,0.566,0.29
125,0.166,0.102,0.313,142,6.17,0.148,0
141,0.155,0.0996,0.306,164,7.18,0,0
157,0.146,0.0975,0.299,190,7.14,0,0
173,0.138,0.0957,0.294,220,6.08,0,0
189,0.131,0.0943,0.288,255,4.36,0,0
205,0.124,0.0928,0.284,295,2.46,0,0
221,0.119,0.0917,0.28,342,0.919,0.0729,0
237,0.114,0.0908,0.276,396,0.104,0.518,0.018
253,0.111,0.0896,0.272,459,0,1.37,1.41
285,0.103,0.0874,0.264,531,0,2.49,4.01
317,0.0949,0.0855,0.259,615,0,3.65,6.85
349,0.0876,0.0841,0.253,712,0,4.62,8.9
381,0.0812,0.0827,0.247,825,0,5.2,9.41
413,0.0768,0.0811,0.242,955,0,5.31,8.25
445,0.0716,0.0796,0.237,1.11E+03,0,4.94,5.86
477,0.0671,0.0784,0.233,1.28E+03,0,4.18,3.11
509,0.0634,0.0776,0.23,1.48E+03,0,3.19,0.956
573,0.0565,0.076,0.223,1.72E+03,0,2.18,0
637,0.0521,0.0742,0.216,1.99E+03,0,1.32,0
701,0.0482,0.0728,0.209,2.30E+03,0,0.787,0
765,0.0435,0.0719,0.202,2.67E+03,0,0.658,0
829,0.04,0.0705,0.197,3.09E+03,0,0.944,0
893,0.0387,0.0692,0.191,3.58E+03,0,1.57,0
957,0.036,0.068,0.186,4.15E+03,0,2.38,0
1.02E+03,0.0338,0.067,0.181,4.80E+03,0.161,3.17,0.651
1.15E+03,0.0318,0.0649,0.175,5.56E+03,1.18,3.72,2.85
1.28E+03,0.0306,0.0633,0.168,6.44E+03,0,0,0
1.40E+03,0.0281,0.0612,0.162,7.46E+03,0,0,0
1.53E+03,0.0262,0.0595,0.155,8.63E+03,0,0,0
1.66E+03,0.0251,0.0577,0.148,,,,
1.79E+03,0.0241,0.0565,0.142,,,,
1.92E+03,0.0231,0.0551,0.136,,,,
2.04E+03,0.0213,0.0538,0.131,,,,
2.30E+03,0.0198,0.0517,0.122,,,,
2.56E+03,0.0193,0.0495,0.112,,,,
2.81E+03,0.0196,0.0471,0.104,,,,
3.07E+03,0.0199,0.0453,0.0988,,,,
3.32E+03,0.0173,0.0437,0.0939,,,,
3.58E+03,0.0168,0.0424,0.089,,,,
3.84E+03,0.0158,0.0417,0.0859,,,,
4.09E+03,0.0156,0.0406,0.0829,,,,
4.60E+03,0.0146,0.0391,0.0802,,,,
5.12E+03,0.0143,0.0383,0.0767,,,,
5.63E+03,0.0144,0.0375,0.0726,,,,
6.14E+03,0.0153,0.0377,0.069,,,,
6.65E+03,0.015,0.0374,0.0672,,,,
7.16E+03,0.0146,0.0372,0.0646,,,,
7.68E+03,0.0161,0.0363,0.062,,,,
8.19E+03,0.0168,0.0358,0.0603,,,,
9.21E+03,0.0163,0.0348,0.0563,,,,
1.02E+04,0.0143,0.0339,0.0524,,,,
1.13E+04,0.0149,0.0344,0.0508,,,,
1.23E+04,0.0143,0.0345,0.0523,,,,
1.33E+04,0.0126,0.0348,0.0515,,,,
1.43E+04,0.014,0.0355,0.0507,,,,
1.54E+04,0.014,0.0353,0.0508,,,,
1.64E+04,0.0134,0.0346,0.0508,,,,
1.84E+04,0.0122,0.0337,0.0483,,,,
2.05E+04,0.0117,0.0333,0.0482,,,,
2.25E+04,0.0122,0.0325,0.0478,,,,
2.46E+04,0.0121,0.0315,0.0461,,,,
2.66E+04,0.0124,0.0307,0.0462,,,,
2.87E+04,0.0136,0.0315,0.0472,,,,
3.07E+04,0.0132,0.0321,0.0511,,,,
3.28E+04,0.0131,0.0324,0.0492,,,,
3.69E+04,0.0138,0.0323,0.0483,,,,
4.10E+04,0.0147,0.0311,0.0436,,,,
4.51E+04,0.0133,0.0317,0.0445,,,,
4.91E+04,0.0119,0.0325,0.0451,,,,
5.32E+04,0.0137,0.0323,0.0407,,,,
5.73E+04,0.0118,0.0316,0.0384,,,,
6.14E+04,0.0116,0.0314,0.0402,,,,
6.55E+04,0.013,0.0318,0.0394,,,,
7.37E+04,0.0118,0.0312,0.04,,,,
8.19E+04,0.0117,0.0316,0.0408,,,,
9.01E+04,0.00992,0.0312,0.0398,,,,
9.83E+04,0.00959,0.0314,0.0456,,,,
1.06E+05,0.00905,0.0314,0.0421,,,,
1.15E+05,0.00876,0.0305,0.0424,,,,
1.23E+05,0.00876,0.0307,0.042,,,,
1.31E+05,0.00824,0.0307,0.0404,,,,
1.47E+05,0.00587,0.0311,0.0358,,,,
1.64E+05,0.00559,0.0322,0.0326,,,,
1.80E+05,0.00501,0.0312,0.0324,,,,
1.97E+05,0.00524,0.0315,0.0332,,,,
2.13E+05,0.00465,0.0308,0.0377,,,,
2.29E+05,0.0034,0.0312,0.038,,,,
2.46E+05,0.00396,0.0313,0.0345,,,,
2.62E+05,0.00277,0.032,0.0297,,,,
2.95E+05,0.00224,0.0308,0.0308,,,,
3.28E+05,0.00207,0.0303,0.0329,,,,
3.60E+05,0.00143,0.0286,0.0313,,,,
3.93E+05,0.0017,0.0293,0.0302,,,,
4.26E+05,0.000954,0.0295,0.0274,,,,
4.59E+05,0.000934,0.0308,0.0267,,,,
4.92E+05,0.000872,0.0306,0.0309,,,,
5.24E+05,0.000964,0.0304,0.0297,,,,
5.90E+05,0.000952,0.0287,0.0274,,,,
6.55E+05,0.000768,0.0285,0.0244,,,,
7.21E+05,0.000714,0.0279,0.0272,,,,
7.86E+05,0.000263,0.0285,0.0275,,,,
8.52E+05,0.000617,0.0276,0.0303,,,,
9.18E+05,0.00079,0.0287,0.0272,,,,
9.83E+05,0.00102,0.0287,0.0265,,,,
1.05E+06,0.00156,0.029,0.0253,,,,
1.18E+06,0.0011,0.0291,0.0303,,,,
1.31E+06,0.00171,0.0299,0.025,,,,
1.44E+06,0.00265,0.0298,0.0263,,,,
1.57E+06,0.00398,0.0289,0.0262,,,,
1.70E+06,0.00463,0.0281,0.0295,,,,
1.84E+06,0.00601,0.0275,0.0278,,,,
1.97E+06,0.00555,0.0277,0.0283,,,,
2.10E+06,0,0,0,,,,
2.36E+06,0,0,0,,,,
2.62E+06,0,0,0,,,,
2.88E+06,0,0,0,,,,
3.15E+06,0,0,0,,,,
3.41E+06,0,0,0,,,,
3.67E+06,0,0,0,,,,
3.93E+06,0,0,0,,,,
4.19E+06,0,0,0,,,,
4.72E+06,0,0,0,,,,
5.24E+06,0,0,0,,,,
5.77E+06,0,0,0,,,,
6.29E+06,0,0,0,,,,
6.82E+06,0,0,0,,,,
7.34E+06,0,0,0,,,,
7.86E+06,0,0,0,,,,
8.39E+06,0,0,0,,,,
9.44E+06,0,0,0,,,,
1.05E+07,0,0,0,,,,
1.15E+07,0,0,0,,,,
1.26E+07,0,0,0,,,,
1.36E+07,0,0,0,,,,
1.47E+07,0,0,0,,,,
1.57E+07,0,0,0,,,,
1.68E+07,0,0,0,,,,
1.89E+07,0,0,0,,,,
2.10E+07,0,0,0,,,,
2.31E+07,0,0,0,,,,
2.52E+07,0,0,0,,,,
2.73E+07,0,0,0,,,,
2.94E+07,0,0,0,,,,
3.15E+07,0,0,0,,,,
3.36E+07,0,0,0,,,,
3.77E+07,0,0,0,,,,
4.19E+07,0,0,0,,,,
4.61E+07,0,0,0,,,,
5.03E+07,0,0,0,,,,
5.45E+07,0,0,0,,,,
5.87E+07,0,0,0,,,,