X Lag Time,Record 13: R 1,Record 14: R 2,Record 15: R 3,X Intensity,Record 13: R 1,Record 14: R 2,Record 15: R 3
0.5,0.7,0.709,0.705,0.4,0,0,0
1,0.678,0.687,0.683,0.463,0,0,0
1.5,0.652,0.663,0.658,0.536,0,0,0
2,0.63,0.638,0.632,0.621,0,0,0
2.5,0.612,0.618,0.612,0.719,0,0,0
3,0.592,0.599,0.594,0.833,0.265,0,0
3.5,0.576,0.581,0.576,0.965,1.09,0,0
4,0.558,0.566,0.559,1.12,1.79,0,0
4.5,0.543,0.551,0.545,1.29,1.81,0,0
5.5,0.515,0.52,0.516,1.5,1.17,0,0
6.5,0.489,0.495,0.49,1.74,0.382,0,0
7.5,0.463,0.469,0.466,2.01,0,0,0
8.5,0.443,0.448,0.445,2.33,0,0,0
9.5,0.423,0.428,0.424,2.7,0,0,0
10.5,0.403,0.409,0.403,3.12,0,0,0
11.5,0.386,0.391,0.387,3.62,0,0,0
12.5,0.369,0.374,0.369,4.19,0,0,0
14.5,0.338,0.341,0.337,4.85,0,0,0.0351
16.5,0.31,0.313,0.309,5.61,0,0.466,0.721
18.5,0.284,0.287,0.283,6.5,0.879,1.81,2.21
20.5,0.262,0.263,0.261,7.53,2.77,3.94,4.32
22.5,0.24,0.242,0.239,8.72,5.33,6.48,6.7
24.5,0.221,0.222,0.22,10.1,8.03,8.97,8.94
26.5,0.203,0.204,0.201,11.7,10.3,11,10.7
28.5,0.187,0.189,0.186,13.5,11.8,12.1,11.6
32.5,0.16,0.16,0.159,15.7,12.2,12.3,11.7
36.5,0.137,0.137,0.136,18.2,11.6,11.5,11
40.5,0.117,0.118,0.116,21,10.1,9.92,9.53
44.5,0.1,0.101,0.1,24.4,7.98,7.83,7.64
48.5,0.0865,0.087,0.0868,28.2,5.66,5.55,5.58
52.5,0.0742,0.0752,0.0744,32.7,3.48,3.42,3.63
56.5,0.0642,0.0657,0.0655,37.8,1.72,1.71,2
60.5,0.0558,0.0571,0.0574,43.8,0.579,0.592,0.841
68.5,0.0429,0.0437,0.0439,50.7,0.0622,0.0756,0.205
76.5,0.033,0.0339,0.0347,58.8,0,0,0
84.5,0.0254,0.0269,0.0276,68.1,0,0,0
92.5,0.0198,0.0212,0.0222,78.8,0,0,0
101,0.0161,0.0172,0.0181,91.3,0,0,0
109,0.0131,0.0142,0.0145,106,0,0,0
117,0.0109,0.0116,0.0121,122,0,0,0
125,0.00888,0.0098,0.0106,142,0,0,0
141,0.00627,0.00714,0.00777,164,0,0,0
157,0.00481,0.00547,0.00586,190,0,0,0
173,0.00397,0.00476,0.0042,220,0,0,0
189,0.00373,0.00479,0.00333,255,0,0,0
205,0.00298,0.0042,0.00255,295,0,0,0
221,0.00238,0.00353,0.00277,342,0,0,0
237,0.00188,0.00283,0.00256,396,0,0,0
253,0.00153,0.00267,0.00257,459,0,0,0
285,0.000994,0.00224,0.00226,531,0,0,0
317,0.00131,0.00224,0.00128,615,0,0,0
349,0.0016,0.00235,0.00127,712,0,0,0
381,0.00202,0.0016,0.00122,825,0,0,0
413,0.00194,0.00117,0.00157,955,0,0,0
445,0.00151,0.000929,0.000896,1.11E+03,0,0,0
477,0.00128,0.000757,0.000757,1.28E+03,0,0,0
509,0.00108,0.000587,0.000578,1.48E+03,0,0,0.0134
573,0.000538,0.000771,0.000373,1.72E+03,0,0.0104,0.0478
637,0.000739,0.000781,0.000619,1.99E+03,0.00179,0.045,0.104
701,0.0014,0.00139,0.000597,2.30E+03,0.0193,0.106,0.176
765,0.000781,0.00108,0.000838,2.67E+03,0.0559,0.188,0.256
829,0.000655,0.000694,0.000703,3.09E+03,0.108,0.279,0.335
893,0.000164,0.000405,0.000477,3.58E+03,0.166,0.366,0.402
957,0.000226,0.000902,0.00031,4.15E+03,0.22,0.435,0.447
1.02E+03,0.000126,0.000426,0.000157,4.80E+03,0.258,0.472,0.461
1.15E+03,0.000269,0.000205,0.000516,5.56E+03,0.272,0.469,0.44
1.28E+03,0.000284,0.00043,0.000635,6.44E+03,0,0,0
1.40E+03,0.000226,0.000228,0.000601,7.46E+03,0,0,0
1.53E+03,0.00011,0.000548,0.000671,8.63E+03,0,0,0
1.66E+03,0.000192,0.000325,0.000408,,,,
1.79E+03,0.000334,0.000725,0.000212,,,,
1.92E+03,0.000304,0.000372,0.000327,,,,
2.04E+03,0.000476,0.000404,0.000322,,,,
2.30E+03,0.000501,0.000424,0.000231,,,,
2.56E+03,0.000682,0.000314,0.000371,,,,
2.81E+03,0.000469,0.00015,0.000316,,,,
3.07E+03,0.00021,0.000358,0.000156,,,,
3.32E+03,0.000269,0.000453,0.00057,,,,
3.58E+03,0.0003,4.33E-05,0.000358,,,,
3.84E+03,0.000166,0.000641,0.000277,,,,
4.09E+03,0.000346,0.000356,0.000236,,,,
4.60E+03,0.000115,0.000287,3.09E-05,,,,
5.12E+03,0.000258,0.000109,0.000166,,,,
5.63E+03,0.00037,0.00014,4.48E-06,,,,
6.14E+03,0.000283,0.00036,0.00035,,,,
6.65E+03,0.000114,0.000301,0.000272,,,,
7.16E+03,0.000371,0.000213,0.000445,,,,
7.68E+03,0.000142,0.000274,0.000188,,,,
8.19E+03,0.000156,0.000181,3.98E-05,,,,
9.21E+03,0.00025,0.000181,5.46E-05,,,,
1.02E+04,0.00034,0,0.000189,,,,
1.13E+04,0.000191,7.48E-05,0.000129,,,,
1.23E+04,5.60E-05,9.43E-05,0.000162,,,,
1.33E+04,0.000196,0.00017,8.95E-07,,,,
1.43E+04,0.000192,0.000197,0.000134,,,,
1.54E+04,0.000301,0.000216,3.07E-05,,,,
1.64E+04,0.000158,0.000359,8.78E-05,,,,
1.84E+04,0,0.000245,0,,,,
2.05E+04,0.000149,0.000248,0.000131,,,,
2.25E+04,0.000127,0.00023,2.51E-05,,,,
2.46E+04,0,3.37E-05,0.000179,,,,
2.66E+04,9.85E-05,0.000114,0.000108,,,,
2.87E+04,0.000242,0.00023,3.47E-05,,,,
3.07E+04,0.000279,9.83E-05,0.000134,,,,
3.28E+04,8.27E-05,0.000107,4.14E-05,,,,
3.69E+04,0.000169,0.000181,0.0001,,,,
4.10E+04,7.21E-05,0.000166,6.37E-05,,,,
4.51E+04,0.000217,8.11E-05,0.000108,,,,
4.91E+04,0.000248,4.47E-05,0.00013,,,,
5.32E+04,9.99E-05,8.18E-05,0.000138,,,,
5.73E+04,4.38E-05,0.00019,8.93E-05,,,,
6.14E+04,7.17E-05,0.000142,2.76E-05,,,,
6.55E+04,9.63E-05,0.00017,0.000133,,,,
7.37E+04,0.000117,0.000111,0.000186,,,,
8.19E+04,0.000172,0.00011,6.20E-05,,,,
9.01E+04,0.000124,0.000123,0.000138,,,,
9.83E+04,7.15E-05,4.91E-05,0.000172,,,,
1.06E+05,9.16E-05,6.77E-05,9.14E-05,,,,
1.15E+05,0.000138,5.09E-05,4.69E-05,,,,
1.23E+05,0.00013,7.07E-05,0.00015,,,,
1.31E+05,0.000102,0.000144,6.76E-05,,,,
1.47E+05,0.000105,0.000123,4.52E-05,,,,
1.64E+05,9.14E-05,9.31E-05,4.45E-05,,,,
1.80E+05,0.000118,0.000125,5.47E-05,,,,
1.97E+05,0.000104,0.000132,6.35E-05,,,,
2.13E+05,7.02E-05,0.000148,0.000107,,,,
2.29E+05,0.000123,0.000131,3.91E-05,,,,
2.46E+05,8.02E-05,0.000148,9.34E-05,,,,
2.62E+05,0.000188,7.36E-05,0.000179,,,,
2.95E+05,0.000203,4.86E-05,4.34E-05,,,,
3.28E+05,0.000206,0.000138,6.14E-05,,,,
3.60E+05,0.000108,0.000195,5.50E-05,,,,
3.93E+05,0.000102,9.70E-05,0.000101,,,,
4.26E+05,0.000123,7.43E-05,0.000137,,,,
4.59E+05,0.000113,0.000123,6.12E-05,,,,
4.92E+05,0.00015,9.89E-05,5.36E-05,,,,
5.24E+05,0.000178,3.77E-05,6.69E-05,,,,
5.90E+05,0.000242,5.97E-05,0.000162,,,,
6.55E+05,0.0001,3.15E-05,0.000198,,,,
7.21E+05,0.000104,8.02E-05,9.24E-05,,,,
7.86E+05,5.50E-05,6.22E-05,0.000168,,,,
8.52E+05,0.000156,4.53E-05,0.000103,,,,
9.18E+05,0.000127,8.78E-05,0.000109,,,,
9.83E+05,0.000173,1.79E-05,0.000116,,,,
1.05E+06,0.000121,0.000104,0.000122,,,,
1.18E+06,8.01E-05,0.000136,0.000166,,,,
1.31E+06,6.51E-05,0.000201,1.68E-05,,,,
1.44E+06,9.88E-05,0.000153,0.000127,,,,
1.57E+06,2.81E-05,0.000163,0.000261,,,,
1.70E+06,0.000164,0.000133,0.000281,,,,
1.84E+06,0.000104,0.000162,0.000141,,,,
1.97E+06,3.40E-05,4.91E-05,0.000194,,,,
2.10E+06,0.000363,0.000326,7.66E-05,,,,
2.36E+06,0.000164,0.000364,0.000125,,,,
2.62E+06,0.000165,0.000277,0.000337,,,,
2.88E+06,3.44E-05,0.000523,0.000207,,,,
3.15E+06,0.000303,0.000317,8.77E-05,,,,
3.41E+06,0.000121,0.000358,0.000134,,,,
3.67E+06,0.000285,0.000303,0.000385,,,,
3.93E+06,0.000237,0.000128,7.75E-05,,,,
4.19E+06,0,0,0,,,,
4.72E+06,0,0,0,,,,
5.24E+06,0,0,0,,,,
5.77E+06,0,0,0,,,,
6.29E+06,0,0,0,,,,
6.82E+06,0,0,0,,,,
7.34E+06,0,0,0,,,,
7.86E+06,0,0,0,,,,
8.39E+06,0,0,0,,,,
9.44E+06,0,0,0,,,,
1.05E+07,0,0,0,,,,
1.15E+07,0,0,0,,,,
1.26E+07,0,0,0,,,,
1.36E+07,0,0,0,,,,
1.47E+07,0,0,0,,,,
1.57E+07,0,0,0,,,,
1.68E+07,0,0,0,,,,
1.89E+07,0,0,0,,,,
2.10E+07,0,0,0,,,,
2.31E+07,0,0,0,,,,
2.52E+07,0,0,0,,,,
2.73E+07,0,0,0,,,,
2.94E+07,0,0,0,,,,
3.15E+07,0,0,0,,,,
3.36E+07,0,0,0,,,,
3.77E+07,0,0,0,,,,
4.19E+07,0,0,0,,,,
4.61E+07,0,0,0,,,,
5.03E+07,0,0,0,,,,
5.45E+07,0,0,0,,,,
5.87E+07,0,0,0,,,,