X Lag Time,Record 1: D1 1,Record 2: D1 2,Record 3: D1 3,X Intensity,Record 1: D1 1,Record 2: D1 2,Record 3: D1 3
0.5,0.693,0.692,0.733,0.4,0,0,0
1,0.672,0.673,0.71,0.463,0,0,0
1.5,0.648,0.65,0.682,0.536,0,0,0
2,0.629,0.629,0.66,0.621,0,0,0.645
2.5,0.61,0.611,0.637,0.719,0,0.484,0.998
3,0.592,0.594,0.619,0.833,0.276,1.24,1.26
3.5,0.577,0.579,0.599,0.965,1.04,1.69,1.3
4,0.561,0.563,0.583,1.12,1.68,1.48,1.05
4.5,0.547,0.549,0.567,1.29,1.69,0.772,0.604
5.5,0.521,0.524,0.538,1.5,1.08,0.114,0.182
6.5,0.498,0.5,0.511,1.74,0.328,0,0
7.5,0.474,0.479,0.486,2.01,0,0,0
8.5,0.454,0.46,0.466,2.33,0,0,0
9.5,0.435,0.44,0.443,2.7,0,0,0
10.5,0.418,0.423,0.424,3.12,0,0,0
11.5,0.401,0.407,0.405,3.62,0,0,0
12.5,0.385,0.392,0.389,4.19,0,0,0
14.5,0.356,0.363,0.357,4.85,0,0,0
16.5,0.33,0.338,0.328,5.61,0,0,0.0126
18.5,0.306,0.314,0.301,6.5,0.262,0.441,1.22
20.5,0.284,0.293,0.279,7.53,1.94,2.6,3.71
22.5,0.264,0.273,0.257,8.72,4.9,6.14,6.92
24.5,0.246,0.254,0.237,10.1,8.35,9.91,10
26.5,0.229,0.238,0.219,11.7,11.3,12.7,12.2
28.5,0.214,0.223,0.203,13.5,12.9,13.6,13
32.5,0.186,0.196,0.175,15.7,12.9,12.5,12.2
36.5,0.164,0.174,0.151,18.2,11.2,9.69,10.1
40.5,0.144,0.154,0.131,21,8.43,6.11,7.19
44.5,0.127,0.138,0.114,24.4,5.25,2.82,4.22
48.5,0.113,0.124,0.0999,28.2,2.46,0.69,1.81
52.5,0.101,0.112,0.0886,32.7,0.662,0,0.407
56.5,0.0905,0.102,0.0785,37.8,0,0,0
60.5,0.0818,0.0942,0.0704,43.8,0,0,0
68.5,0.067,0.0797,0.0565,50.7,0,0,0
76.5,0.0563,0.069,0.0467,58.8,0,0,0
84.5,0.0482,0.06,0.0387,68.1,0,0,0
92.5,0.0421,0.0535,0.0332,78.8,0,0,0
101,0.0371,0.0487,0.0288,91.3,0,0,0
109,0.0336,0.0452,0.0258,106,0,0,0
117,0.0303,0.042,0.0231,122,0,0,0
125,0.0282,0.0393,0.021,142,0,0,0
141,0.0249,0.0352,0.0178,164,0,0,0
157,0.0224,0.0331,0.0164,190,0,0,0
173,0.0205,0.0309,0.0155,220,0,0,0
189,0.0192,0.0298,0.0148,255,0,0.0215,0
205,0.018,0.0291,0.014,295,0,0.24,0
221,0.0171,0.0282,0.0133,342,0,0.648,0
237,0.0166,0.028,0.0129,396,0.0722,1.15,0
253,0.0163,0.0273,0.0125,459,0.245,1.62,0.0313
285,0.0152,0.0262,0.0118,531,0.498,1.97,0.13
317,0.0144,0.0245,0.0114,615,0.791,2.11,0.294
349,0.0144,0.0236,0.0106,712,1.08,2.04,0.499
381,0.0138,0.0231,0.0102,825,1.31,1.78,0.714
413,0.0131,0.0224,0.00995,955,1.46,1.4,0.908
445,0.0126,0.0217,0.00931,1.11E+03,1.52,0.966,1.06
477,0.0129,0.0209,0.00841,1.28E+03,1.48,0.561,1.14
509,0.0127,0.0203,0.0079,1.48E+03,1.35,0.25,1.17
573,0.0106,0.0191,0.00763,1.72E+03,1.15,0.0648,1.12
637,0.00998,0.0177,0.00703,1.99E+03,0.913,0,1.02
701,0.00985,0.017,0.00678,2.30E+03,0.664,0,0.881
765,0.00978,0.0158,0.00719,2.67E+03,0.432,0,0.716
829,0.00909,0.0145,0.00652,3.09E+03,0.24,0.0634,0.543
893,0.00903,0.0144,0.00618,3.58E+03,0.103,0.211,0.379
957,0.00895,0.0142,0.00614,4.15E+03,0.026,0.424,0.237
1.02E+03,0.00798,0.0133,0.00556,4.80E+03,0,0.654,0.127
1.15E+03,0.00737,0.0123,0.00477,5.56E+03,0,0.838,0.0529
1.28E+03,0.00699,0.0114,0.00489,6.44E+03,0,0,0
1.40E+03,0.00614,0.0102,0.00403,7.46E+03,0,0,0
1.53E+03,0.00548,0.00935,0.00375,8.63E+03,0,0,0
1.66E+03,0.00549,0.00944,0.00329,,,,
1.79E+03,0.00529,0.00887,0.00354,,,,
1.92E+03,0.0053,0.0078,0.00393,,,,
2.04E+03,0.00478,0.00725,0.00322,,,,
2.30E+03,0.00395,0.00752,0.00375,,,,
2.56E+03,0.00375,0.00661,0.00317,,,,
2.81E+03,0.00407,0.0063,0.00227,,,,
3.07E+03,0.00438,0.00657,0.00222,,,,
3.32E+03,0.00421,0.00657,0.00261,,,,
3.58E+03,0.00411,0.00622,0.00238,,,,
3.84E+03,0.00365,0.00599,0.00224,,,,
4.09E+03,0.00396,0.00604,0.00238,,,,
4.60E+03,0.00316,0.00584,0.00179,,,,
5.12E+03,0.00368,0.00568,0.00215,,,,
5.63E+03,0.00398,0.00545,0.00174,,,,
6.14E+03,0.00324,0.00556,0.00264,,,,
6.65E+03,0.0037,0.00594,0.00203,,,,
7.16E+03,0.00293,0.00539,0.0018,,,,
7.68E+03,0.00335,0.00485,0.00211,,,,
8.19E+03,0.00316,0.00521,0.00199,,,,
9.21E+03,0.00328,0.00526,0.00218,,,,
1.02E+04,0.0032,0.00514,0.002,,,,
1.13E+04,0.00318,0.00507,0.0017,,,,
1.23E+04,0.00303,0.00517,0.00187,,,,
1.33E+04,0.00305,0.00472,0.00211,,,,
1.43E+04,0.0031,0.00453,0.00199,,,,
1.54E+04,0.00275,0.00478,0.00176,,,,
1.64E+04,0.00316,0.00439,0.00188,,,,
1.84E+04,0.00286,0.00412,0.00192,,,,
2.05E+04,0.00285,0.00438,0.00188,,,,
2.25E+04,0.00271,0.00439,0.00175,,,,
2.46E+04,0.0029,0.00447,0.00197,,,,
2.66E+04,0.00299,0.00447,0.00185,,,,
2.87E+04,0.00261,0.00483,0.00146,,,,
3.07E+04,0.00277,0.00468,0.00171,,,,
3.28E+04,0.00275,0.00392,0.00165,,,,
3.69E+04,0.00279,0.00391,0.00147,,,,
4.10E+04,0.00275,0.00368,0.00149,,,,
4.51E+04,0.0026,0.00389,0.0015,,,,
4.91E+04,0.00269,0.00372,0.00139,,,,
5.32E+04,0.00267,0.00361,0.00139,,,,
5.73E+04,0.0028,0.00357,0.00152,,,,
6.14E+04,0.00264,0.00383,0.0016,,,,
6.55E+04,0.00249,0.00377,0.00139,,,,
7.37E+04,0.00244,0.00354,0.00146,,,,
8.19E+04,0.00256,0.00362,0.00149,,,,
9.01E+04,0.00265,0.00343,0.00137,,,,
9.83E+04,0.00244,0.0033,0.00117,,,,
1.06E+05,0.00265,0.0035,0.00136,,,,
1.15E+05,0.00285,0.00325,0.00127,,,,
1.23E+05,0.0028,0.00321,0.00104,,,,
1.31E+05,0.00278,0.00307,0.00127,,,,
1.47E+05,0.00282,0.00285,0.00145,,,,
1.64E+05,0.0025,0.00295,0.00127,,,,
1.80E+05,0.00234,0.0032,0.00125,,,,
1.97E+05,0.00236,0.00313,0.00136,,,,
2.13E+05,0.00224,0.00322,0.00135,,,,
2.29E+05,0.00212,0.00309,0.0012,,,,
2.46E+05,0.00231,0.00314,0.00124,,,,
2.62E+05,0.00244,0.00327,0.00127,,,,
2.95E+05,0.00217,0.00272,0.00117,,,,
3.28E+05,0.00207,0.00279,0.00121,,,,
3.60E+05,0.00211,0.00219,0.00126,,,,
3.93E+05,0.00204,0.00244,0.00116,,,,
4.26E+05,0.00205,0.0023,0.00113,,,,
4.59E+05,0.00188,0.00294,0.000996,,,,
4.92E+05,0.00169,0.00298,0.00093,,,,
5.24E+05,0.00188,0.00253,0.00101,,,,
5.90E+05,0.00163,0.00224,0.000788,,,,
6.55E+05,0.00153,0.00221,0.000732,,,,
7.21E+05,0.00169,0.00225,0.00067,,,,
7.86E+05,0.00169,0.00223,0.000637,,,,
8.52E+05,0.0016,0.00177,0.000472,,,,
9.18E+05,0.00166,0.00174,0.000525,,,,
9.83E+05,0.00165,0.00156,0.000311,,,,
1.05E+06,0.00158,0.00172,0.00095,,,,
1.18E+06,0.00183,0.000754,0.000655,,,,
1.31E+06,0.00198,0.000573,0.000436,,,,
1.44E+06,0.00212,0.000181,0.000347,,,,
1.57E+06,0.00227,0.000184,0.000627,,,,
1.70E+06,0.00234,0.000459,0.000681,,,,
1.84E+06,0.00249,0.000508,0.000679,,,,
1.97E+06,0.00267,0.000193,0.000563,,,,
2.10E+06,0.00312,0.000713,0.00105,,,,
2.36E+06,0.0033,0.00111,0.0017,,,,
2.62E+06,0.00347,0.00127,0.00128,,,,
2.88E+06,0.00457,0.000779,0.0019,,,,
3.15E+06,0.00557,0.000921,0.00183,,,,
3.41E+06,0.00585,0.000692,0.00243,,,,
3.67E+06,0.00609,0.000977,0.00217,,,,
3.93E+06,0.00649,0.00158,0.00251,,,,
4.19E+06,0,0,0,,,,
4.72E+06,0,0,0,,,,
5.24E+06,0,0,0,,,,
5.77E+06,0,0,0,,,,
6.29E+06,0,0,0,,,,
6.82E+06,0,0,0,,,,
7.34E+06,0,0,0,,,,
7.86E+06,0,0,0,,,,
8.39E+06,0,0,0,,,,
9.44E+06,0,0,0,,,,
1.05E+07,0,0,0,,,,
1.15E+07,0,0,0,,,,
1.26E+07,0,0,0,,,,
1.36E+07,0,0,0,,,,
1.47E+07,0,0,0,,,,
1.57E+07,0,0,0,,,,
1.68E+07,0,0,0,,,,
1.89E+07,0,0,0,,,,
2.10E+07,0,0,0,,,,
2.31E+07,0,0,0,,,,
2.52E+07,0,0,0,,,,
2.73E+07,0,0,0,,,,
2.94E+07,0,0,0,,,,
3.15E+07,0,0,0,,,,
3.36E+07,0,0,0,,,,
3.77E+07,0,0,0,,,,
4.19E+07,0,0,0,,,,
4.61E+07,0,0,0,,,,
5.03E+07,0,0,0,,,,
5.45E+07,0,0,0,,,,
5.87E+07,0,0,0,,,,