X Lag Time,Record 1: JJ1_01mg_000rpm_00-00min_NA_No2_230530 1,Record 2: JJ1_01mg_000rpm_00-00min_NA_No2_230530 2,Record 3: JJ1_01mg_000rpm_00-00min_NA_No2_230530 3,X Intensity,Record 1: JJ1_01mg_000rpm_00-00min_NA_No2_230530 1,Record 2: JJ1_01mg_000rpm_00-00min_NA_No2_230530 2,Record 3: JJ1_01mg_000rpm_00-00min_NA_No2_230530 3
0.5,0.748,0.762,0.773,0.4,0,0,0
1,0.725,0.737,0.75,0.463,0,0,0
1.5,0.7,0.71,0.724,0.536,0,0,0
2,0.674,0.687,0.701,0.621,0,0,0.0988
2.5,0.653,0.665,0.677,0.719,0,0,0.533
3,0.633,0.644,0.658,0.833,0,0.558,1.08
3.5,0.614,0.626,0.639,0.965,0,1.36,1.37
4,0.596,0.606,0.623,1.12,0,1.68,1.2
4.5,0.578,0.589,0.606,1.29,0,1.25,0.694
5.5,0.548,0.558,0.573,1.5,0,0.476,0.187
6.5,0.52,0.53,0.543,1.74,0,0,0
7.5,0.494,0.502,0.517,2.01,0,0,0
8.5,0.469,0.478,0.493,2.33,0,0,0
9.5,0.446,0.454,0.471,2.7,0,0,0
10.5,0.424,0.433,0.448,3.12,0,0,0
11.5,0.404,0.413,0.43,3.62,0,0,0
12.5,0.384,0.394,0.41,4.19,0,0,0
14.5,0.349,0.358,0.375,4.85,0,0,0
16.5,0.317,0.325,0.342,5.61,0.127,0,0.23
18.5,0.289,0.296,0.313,6.5,1.34,0.606,1.4
20.5,0.262,0.27,0.287,7.53,3.77,2.62,3.51
22.5,0.241,0.247,0.263,8.72,7,5.8,6.18
24.5,0.218,0.224,0.241,10.1,10.3,9.37,8.86
26.5,0.198,0.205,0.222,11.7,13,12.4,11
28.5,0.182,0.188,0.204,13.5,14.5,14.2,12.3
32.5,0.151,0.157,0.172,15.7,14.4,14.4,12.4
36.5,0.126,0.131,0.146,18.2,12.9,13,11.6
40.5,0.105,0.11,0.124,21,10.2,10.2,9.83
44.5,0.0881,0.0929,0.107,24.4,6.94,6.88,7.59
48.5,0.0734,0.0778,0.0908,28.2,3.83,3.69,5.2
52.5,0.0623,0.0661,0.0774,32.7,1.47,1.31,3.03
56.5,0.0526,0.0555,0.0665,37.8,0.227,0.135,1.38
60.5,0.0447,0.048,0.0574,43.8,0,0,0.376
68.5,0.0318,0.0342,0.0429,50.7,0,0,0
76.5,0.0237,0.0261,0.033,58.8,0,0,0
84.5,0.0172,0.0188,0.0259,68.1,0,0,0
92.5,0.0124,0.0133,0.0204,78.8,0,0,0
101,0.00997,0.0101,0.016,91.3,0,0,0
109,0.00684,0.00738,0.013,106,0,0,0
117,0.00489,0.00657,0.0108,122,0,0,0
125,0.00361,0.00604,0.00942,142,0,0,0
141,0.00143,0.00462,0.00666,164,0,0,0
157,0.000825,0.00212,0.00556,190,0,0,0
173,0.000666,0.00177,0.00509,220,0,0,0
189,0.000274,0.000626,0.00343,255,0,0,0
205,0.000204,0.000736,0.00253,295,0,0,0
221,0,0.000773,0.00229,342,0,0,0
237,0.00039,0.000529,0.00186,396,0,0,0
253,0.000648,0.000415,0.00155,459,0,0,0
285,0.000712,0.000158,0.00161,531,0,0,0
317,0.000652,0.000715,0.000884,615,0,0,0
349,0.000976,0.00124,0.000778,712,0,0,0
381,0.00127,0.00119,0.000292,825,0,0,0
413,0.000866,0.00109,5.51E-05,955,0,0,0
445,0.000838,0.00081,0.000591,1.11E+03,0,0,0
477,0.00127,0.000791,0.000544,1.28E+03,0,0,0
509,0.000585,0.000298,0.000237,1.48E+03,0,0,0
573,0.000184,0.000621,0.000199,1.72E+03,0,0,0
637,0.000441,0,0.000138,1.99E+03,0,0,0
701,0.000791,0.000439,0.000141,2.30E+03,0,0,0
765,0.00109,0.000962,0.00018,2.67E+03,0,0,0
829,0.000218,0.00105,0.000728,3.09E+03,0,0,0
893,0.0013,0.00126,0.00116,3.58E+03,0,0,0
957,0.000565,0.00108,0.00126,4.15E+03,0,0,0
1.02E+03,0.000624,0.00103,0.000373,4.80E+03,0,0,0
1.15E+03,0.000195,0.000722,0.000538,5.56E+03,0,0,0
1.28E+03,0.000857,0.000468,0.000122,6.44E+03,0,0,0
1.40E+03,0.000377,0.000472,0.000261,7.46E+03,0,0,0
1.53E+03,0.000483,0.00109,0.000356,8.63E+03,0,0,0
1.66E+03,0.00133,0.00123,0.00109,,,,
1.79E+03,0.000757,0.000319,0.000494,,,,
1.92E+03,0.000536,0,0.000252,,,,
2.04E+03,0.000582,0,0.000151,,,,
2.30E+03,0.000434,9.54E-05,0.00017,,,,
2.56E+03,0.000875,0.000639,0.000555,,,,
2.81E+03,0.00114,0.000819,0.000608,,,,
3.07E+03,0.00032,0,0.000995,,,,
3.32E+03,0.000208,0.0002,0.000423,,,,
3.58E+03,0.000512,0.000392,0.000275,,,,
3.84E+03,0.00018,0.0013,0,,,,
4.09E+03,0.000221,0.00097,7.39E-05,,,,
4.60E+03,0.000119,0.000505,0.000148,,,,
5.12E+03,0.000294,0.000551,0.000299,,,,
5.63E+03,0.000801,0.000537,0.000382,,,,
6.14E+03,0.000161,0.000353,0.000439,,,,
6.65E+03,0.000215,0.000901,0.000173,,,,
7.16E+03,0.000405,0.00069,0.000446,,,,
7.68E+03,0.000267,0.000382,0.000305,,,,
8.19E+03,0.000119,0.000178,0.000242,,,,
9.21E+03,0.0004,0.000235,0,,,,
1.02E+04,4.92E-05,6.51E-05,6.73E-05,,,,
1.13E+04,0.000329,8.45E-05,0.000199,,,,
1.23E+04,0.000192,0,0.000165,,,,
1.33E+04,0.000129,0.00019,0.000348,,,,
1.43E+04,0.000143,0.000278,0.000331,,,,
1.54E+04,0.000381,1.80E-05,0.000301,,,,
1.64E+04,0.000276,8.49E-05,0.000187,,,,
1.84E+04,0.00027,0.000234,0.000265,,,,
2.05E+04,0.00047,6.62E-05,0.000172,,,,
2.25E+04,0.000169,0.000124,0.000108,,,,
2.46E+04,0.000213,0.000152,0,,,,
2.66E+04,0.000277,0.000272,0.000112,,,,
2.87E+04,0.000163,0.000105,0.000219,,,,
3.07E+04,0.000343,5.33E-05,0.000227,,,,
3.28E+04,0.000151,3.28E-05,9.23E-05,,,,
3.69E+04,0.000184,7.87E-05,0.000236,,,,
4.10E+04,9.44E-05,5.68E-05,3.37E-05,,,,
4.51E+04,8.98E-05,3.26E-06,0.000186,,,,
4.91E+04,0.000122,0.000117,6.91E-05,,,,
5.32E+04,7.36E-05,4.52E-05,6.92E-05,,,,
5.73E+04,7.52E-05,3.65E-05,0.000193,,,,
6.14E+04,1.68E-05,5.46E-05,2.67E-05,,,,
6.55E+04,0.000182,8.73E-05,7.29E-05,,,,
7.37E+04,6.21E-05,0.000124,7.03E-05,,,,
8.19E+04,0.000161,1.22E-05,9.47E-05,,,,
9.01E+04,6.38E-05,4.17E-05,6.91E-05,,,,
9.83E+04,0.000237,7.53E-05,5.87E-05,,,,
1.06E+05,0.000124,8.76E-05,8.03E-05,,,,
1.15E+05,0.000243,0,0.000131,,,,
1.23E+05,0.000206,4.83E-05,3.23E-05,,,,
1.31E+05,9.22E-05,0.000127,5.94E-05,,,,
1.47E+05,0.000144,0.00022,9.51E-05,,,,
1.64E+05,0.00022,0.000144,0.000205,,,,
1.80E+05,0.000108,0.000118,9.81E-05,,,,
1.97E+05,0.000141,1.18E-05,6.22E-05,,,,
2.13E+05,0.000141,9.53E-05,0.000125,,,,
2.29E+05,0.000319,0.00022,6.24E-05,,,,
2.46E+05,0.000127,0.000111,0.000161,,,,
2.62E+05,7.11E-05,5.28E-05,0.000187,,,,
2.95E+05,8.27E-05,7.79E-05,0.000109,,,,
3.28E+05,0.000187,0.00017,0.000121,,,,
3.60E+05,0.000221,0.000333,7.52E-05,,,,
3.93E+05,0.000132,3.06E-05,0.000349,,,,
4.26E+05,0.000113,6.27E-05,0.000147,,,,
4.59E+05,0.000163,0.000126,0.00015,,,,
4.92E+05,0.000143,0.000216,9.62E-05,,,,
5.24E+05,0.00026,0.000101,0.000252,,,,
5.90E+05,0.000383,0.000501,0.000251,,,,
6.55E+05,0.000189,0.000291,0.000124,,,,
7.21E+05,4.02E-05,0.000316,0.000122,,,,
7.86E+05,0.000183,0.000199,0.000154,,,,
8.52E+05,8.64E-05,0.000339,0.000218,,,,
9.18E+05,0.000254,0.000239,0.000195,,,,
9.83E+05,0.00011,0.000395,0.000248,,,,
1.05E+06,0.000139,0.000153,0.000287,,,,
1.18E+06,0.000279,0.000494,3.19E-05,,,,
1.31E+06,0,0.000402,0.000117,,,,
1.44E+06,0.000239,0.000336,0,,,,
1.57E+06,0.00028,0.00044,0.000191,,,,
1.70E+06,0.000292,0.000386,0.000135,,,,
1.84E+06,4.85E-05,0.000402,0.000155,,,,
1.97E+06,0.000299,0.000293,0.000148,,,,
2.10E+06,0,0,0,,,,
2.36E+06,0,0,0,,,,
2.62E+06,0,0,0,,,,
2.88E+06,0,0,0,,,,
3.15E+06,0,0,0,,,,
3.41E+06,0,0,0,,,,
3.67E+06,0,0,0,,,,
3.93E+06,0,0,0,,,,
4.19E+06,0,0,0,,,,
4.72E+06,0,0,0,,,,
5.24E+06,0,0,0,,,,
5.77E+06,0,0,0,,,,
6.29E+06,0,0,0,,,,
6.82E+06,0,0,0,,,,
7.34E+06,0,0,0,,,,
7.86E+06,0,0,0,,,,
8.39E+06,0,0,0,,,,
9.44E+06,0,0,0,,,,
1.05E+07,0,0,0,,,,
1.15E+07,0,0,0,,,,
1.26E+07,0,0,0,,,,
1.36E+07,0,0,0,,,,
1.47E+07,0,0,0,,,,
1.57E+07,0,0,0,,,,
1.68E+07,0,0,0,,,,
1.89E+07,0,0,0,,,,
2.10E+07,0,0,0,,,,
2.31E+07,0,0,0,,,,
2.52E+07,0,0,0,,,,
2.73E+07,0,0,0,,,,
2.94E+07,0,0,0,,,,
3.15E+07,0,0,0,,,,
3.36E+07,0,0,0,,,,
3.77E+07,0,0,0,,,,
4.19E+07,0,0,0,,,,
4.61E+07,0,0,0,,,,
5.03E+07,0,0,0,,,,
5.45E+07,0,0,0,,,,
5.87E+07,0,0,0,,,,