X Lag Time,Record 1: SST 1,Record 2: SST 2,Record 3: SST 3,X Intensity,Record 1: SST 1,Record 2: SST 2,Record 3: SST 3
0.5,0.839,0.844,0.85,0.4,0,0,0
1,0.844,0.851,0.854,0.463,0,0,0
1.5,0.842,0.848,0.853,0.536,0,0,0
2,0.84,0.847,0.849,0.621,0,0,0
2.5,0.838,0.844,0.848,0.719,0,0,0
3,0.838,0.843,0.847,0.833,0,0,0
3.5,0.836,0.84,0.844,0.965,0,0,0
4,0.834,0.841,0.844,1.12,0,0,0
4.5,0.832,0.837,0.841,1.29,0,0,0
5.5,0.83,0.836,0.839,1.5,0,0,0
6.5,0.827,0.833,0.836,1.74,0,0,0
7.5,0.825,0.83,0.835,2.01,0,0,0
8.5,0.822,0.827,0.832,2.33,0,0,0
9.5,0.82,0.825,0.828,2.7,0,0,0
10.5,0.817,0.823,0.826,3.12,0,0,0
11.5,0.816,0.819,0.824,3.62,0,0,0
12.5,0.813,0.817,0.822,4.19,0,0,0
14.5,0.807,0.813,0.816,4.85,0,0,0
16.5,0.802,0.807,0.812,5.61,0,0,0
18.5,0.798,0.803,0.807,6.5,0,0,0
20.5,0.793,0.798,0.802,7.53,0,0,0
22.5,0.788,0.793,0.798,8.72,0,0,0
24.5,0.783,0.788,0.793,10.1,0,0,0
26.5,0.778,0.783,0.788,11.7,0,0,0
28.5,0.774,0.778,0.783,13.5,0,0,0
32.5,0.764,0.769,0.775,15.7,0,0,0
36.5,0.756,0.76,0.765,18.2,0,0,0
40.5,0.747,0.751,0.756,21,0,0,0
44.5,0.737,0.741,0.747,24.4,0,0,0
48.5,0.728,0.732,0.738,28.2,0,0,0
52.5,0.72,0.724,0.73,32.7,0,0,0
56.5,0.711,0.714,0.721,37.8,0,0,0
60.5,0.703,0.706,0.712,43.8,0,0,0
68.5,0.686,0.689,0.696,50.7,0,0,0
76.5,0.669,0.672,0.68,58.8,0,0,0
84.5,0.653,0.656,0.663,68.1,0,0,0
92.5,0.638,0.64,0.648,78.8,0,0,0
101,0.622,0.624,0.633,91.3,0,0,0
109,0.608,0.61,0.618,106,0,0,0
117,0.593,0.595,0.603,122,1.83,1.34,0
125,0.579,0.581,0.589,142,9.67,9.74,7.78
141,0.551,0.554,0.562,164,19.1,20.1,19.1
157,0.526,0.527,0.536,190,24.5,25.7,26.2
173,0.501,0.502,0.511,220,22.9,23.3,24.9
189,0.477,0.479,0.487,255,15.4,14.7,16.2
205,0.455,0.456,0.465,295,6.25,5.12,5.86
221,0.433,0.434,0.443,342,0.424,0,0
237,0.413,0.414,0.422,396,0,0,0
253,0.393,0.394,0.402,459,0,0,0
285,0.357,0.358,0.365,531,0,0,0
317,0.324,0.324,0.332,615,0,0,0
349,0.294,0.293,0.302,712,0,0,0
381,0.266,0.266,0.274,825,0,0,0
413,0.242,0.241,0.249,955,0,0,0
445,0.219,0.218,0.226,1.11E+03,0,0,0
477,0.199,0.196,0.205,1.28E+03,0,0,0
509,0.181,0.178,0.186,1.48E+03,0,0,0
573,0.148,0.145,0.153,1.72E+03,0,0,0
637,0.122,0.119,0.125,1.99E+03,0,0,0
701,0.101,0.0962,0.102,2.30E+03,0,0,0
765,0.0824,0.0777,0.0835,2.67E+03,0,0,0
829,0.0674,0.0623,0.0678,3.09E+03,0,0,0
893,0.0549,0.0499,0.0557,3.58E+03,0,0,0
957,0.0443,0.0402,0.0457,4.15E+03,0,0,0
1.02E+03,0.037,0.0339,0.0385,4.80E+03,0,0,0
1.15E+03,0.0256,0.024,0.0269,5.56E+03,0,0,0
1.28E+03,0.0181,0.0162,0.0196,6.44E+03,0,0,0
1.40E+03,0.0148,0.0107,0.0142,7.46E+03,0,0,0
1.53E+03,0.012,0.00762,0.0104,8.63E+03,0,0,0
1.66E+03,0.00962,0.00678,0.00805,,,,
1.79E+03,0.00939,0.00518,0.00664,,,,
1.92E+03,0.00943,0.00413,0.00564,,,,
2.04E+03,0.00871,0.0034,0.00471,,,,
2.30E+03,0.00708,0.00263,0.00513,,,,
2.56E+03,0.00594,0.00213,0.00298,,,,
2.81E+03,0.00489,0.00376,0.00305,,,,
3.07E+03,0.00799,0.00469,0.00562,,,,
3.32E+03,0.00902,0.00862,0.00586,,,,
3.58E+03,0.00666,0.00998,0.00434,,,,
3.84E+03,0.00549,0.00775,0.00277,,,,
4.09E+03,0.00317,0.00699,0.00235,,,,
4.60E+03,0.0022,0.00533,0.00267,,,,
5.12E+03,0.000983,0.00374,0.00343,,,,
5.63E+03,0.00284,0.00243,0.00128,,,,
6.14E+03,0.000889,0.00227,0.0022,,,,
6.65E+03,0.000729,0.00235,0.00255,,,,
7.16E+03,0.00144,0.00806,0.00293,,,,
7.68E+03,0.00257,0.00339,0.00323,,,,
8.19E+03,0.00249,0.00216,0.000605,,,,
9.21E+03,0.0014,0.00237,0.00132,,,,
1.02E+04,0.00467,0.00532,0.00277,,,,
1.13E+04,0.00459,0.00218,0.00056,,,,
1.23E+04,0.00256,0.00283,0.0015,,,,
1.33E+04,0.00283,0.00383,0.00325,,,,
1.43E+04,0.000112,0.00341,0.00307,,,,
1.54E+04,0.00347,0.00306,0,,,,
1.64E+04,0.00307,0.00256,0,,,,
1.84E+04,0.00265,0.00148,0.00333,,,,
2.05E+04,0.00306,0.00134,0.00586,,,,
2.25E+04,0.00132,0.00158,0.00653,,,,
2.46E+04,0.00208,0.00133,0.0018,,,,
2.66E+04,0.00122,0.00114,0.00512,,,,
2.87E+04,0.00199,0.00115,0.000548,,,,
3.07E+04,0.00421,0.000777,0.00273,,,,
3.28E+04,0.0026,0.00166,0.00132,,,,
3.69E+04,0.00137,0.000497,0.000302,,,,
4.10E+04,0.000498,1.08E-05,0.00203,,,,
4.51E+04,0.00132,0.00157,0.00444,,,,
4.91E+04,0.000842,0.0037,0.00183,,,,
5.32E+04,0.000154,0.00187,0.0025,,,,
5.73E+04,0.00141,0.00202,0.0014,,,,
6.14E+04,0.00135,0.00318,0.000771,,,,
6.55E+04,0.000977,0.00167,2.60E-05,,,,
7.37E+04,0.000661,0.000902,0.0029,,,,
8.19E+04,0.0012,0.000662,0.00105,,,,
9.01E+04,0.00241,0.00101,0.00137,,,,
9.83E+04,0.00232,0.00109,0.00163,,,,
1.06E+05,0.00313,0.000989,0.00143,,,,
1.15E+05,0.00034,0.00157,0.00127,,,,
1.23E+05,0.000475,0.000944,0.00215,,,,
1.31E+05,0.000489,0.000913,0.000149,,,,
1.47E+05,0.000881,0.000352,0.000628,,,,
1.64E+05,0.000572,0.000753,0.000663,,,,
1.80E+05,0.000931,0.0011,0.000673,,,,
1.97E+05,0.000587,0.000574,0.0016,,,,
2.13E+05,0.000409,0.00128,0.00124,,,,
2.29E+05,0,0.000699,0.00102,,,,
2.46E+05,0.000312,0.0011,0.00117,,,,
2.62E+05,0.00045,0.000449,0.000743,,,,
2.95E+05,0.00115,0.000763,0.00104,,,,
3.28E+05,0.000832,0.000606,0.00105,,,,
3.60E+05,0.00103,4.08E-05,0,,,,
3.93E+05,0.000489,0.000297,0.000725,,,,
4.26E+05,0.000817,0.00118,0.000229,,,,
4.59E+05,0.00166,0.000361,0.000646,,,,
4.92E+05,0.000726,0.000428,0.00202,,,,
5.24E+05,0.00113,0.0005,0.000698,,,,
5.90E+05,0.00155,0.000178,0.00042,,,,
6.55E+05,0.000733,0.000702,0.000999,,,,
7.21E+05,0.000859,0.00031,0,,,,
7.86E+05,0.00117,0.00102,0.000318,,,,
8.52E+05,0.00125,0.000408,0.000658,,,,
9.18E+05,0.00144,0.00124,0.00142,,,,
9.83E+05,0.00104,0.000953,0.00103,,,,
1.05E+06,0.00226,0.000436,0.000863,,,,
1.18E+06,0.00173,0.000165,0.00132,,,,
1.31E+06,0.00186,0.000757,0.000673,,,,
1.44E+06,0.00176,0.000818,0.000919,,,,
1.57E+06,0.00132,0,0.000855,,,,
1.70E+06,0.00154,0.00131,0.000858,,,,
1.84E+06,0.00229,0.000495,0.000131,,,,
1.97E+06,0.00296,0.000294,0.000989,,,,
2.10E+06,0,0,0,,,,
2.36E+06,0,0,0,,,,
2.62E+06,0,0,0,,,,
2.88E+06,0,0,0,,,,
3.15E+06,0,0,0,,,,
3.41E+06,0,0,0,,,,
3.67E+06,0,0,0,,,,
3.93E+06,0,0,0,,,,
4.19E+06,0,0,0,,,,
4.72E+06,0,0,0,,,,
5.24E+06,0,0,0,,,,
5.77E+06,0,0,0,,,,
6.29E+06,0,0,0,,,,
6.82E+06,0,0,0,,,,
7.34E+06,0,0,0,,,,
7.86E+06,0,0,0,,,,
8.39E+06,0,0,0,,,,
9.44E+06,0,0,0,,,,
1.05E+07,0,0,0,,,,
1.15E+07,0,0,0,,,,
1.26E+07,0,0,0,,,,
1.36E+07,0,0,0,,,,
1.47E+07,0,0,0,,,,
1.57E+07,0,0,0,,,,
1.68E+07,0,0,0,,,,
1.89E+07,0,0,0,,,,
2.10E+07,0,0,0,,,,
2.31E+07,0,0,0,,,,
2.52E+07,0,0,0,,,,
2.73E+07,0,0,0,,,,
2.94E+07,0,0,0,,,,
3.15E+07,0,0,0,,,,
3.36E+07,0,0,0,,,,
3.77E+07,0,0,0,,,,
4.19E+07,0,0,0,,,,
4.61E+07,0,0,0,,,,
5.03E+07,0,0,0,,,,
5.45E+07,0,0,0,,,,
5.87E+07,0,0,0,,,,