X Lag Time,Record 31: F6 1,Record 32: F6 2,Record 33: F6 3,X Intensity,Record 31: F6 1,Record 32: F6 2,Record 33: F6 3
0.5,0.863,0.883,0.869,0.4,0,0,0
1,0.864,0.886,0.87,0.463,0,0,0
1.5,0.863,0.881,0.867,0.536,0,0,0
2,0.859,0.879,0.865,0.621,0,0,0
2.5,0.858,0.877,0.863,0.719,0,0,0
3,0.856,0.876,0.859,0.833,0,0,0
3.5,0.855,0.875,0.86,0.965,0,0,0
4,0.854,0.872,0.858,1.12,0,0,0
4.5,0.852,0.87,0.856,1.29,0,0,0
5.5,0.849,0.868,0.853,1.5,0,0,0
6.5,0.846,0.864,0.849,1.74,0,0,0
7.5,0.843,0.861,0.847,2.01,0,0,0
8.5,0.839,0.859,0.844,2.33,0,0,0
9.5,0.837,0.856,0.842,2.7,0,0,0
10.5,0.836,0.853,0.839,3.12,0,0,0
11.5,0.833,0.851,0.837,3.62,0,0,0
12.5,0.831,0.849,0.834,4.19,0,0,0
14.5,0.826,0.844,0.829,4.85,0,0,0
16.5,0.822,0.839,0.825,5.61,0,0,0
18.5,0.817,0.834,0.82,6.5,0,0,0
20.5,0.812,0.831,0.816,7.53,0,0,0
22.5,0.809,0.826,0.811,8.72,0,0,0
24.5,0.804,0.823,0.807,10.1,0,0,0
26.5,0.8,0.819,0.803,11.7,0,0,0
28.5,0.797,0.814,0.799,13.5,0,0,0
32.5,0.79,0.807,0.792,15.7,0,0,0
36.5,0.783,0.799,0.784,18.2,0,0,0
40.5,0.776,0.793,0.776,21,0,0,0
44.5,0.769,0.785,0.769,24.4,0,0,0
48.5,0.763,0.778,0.763,28.2,0,0,0
52.5,0.756,0.772,0.756,32.7,0,0,0
56.5,0.75,0.766,0.75,37.8,0,0,0
60.5,0.745,0.76,0.744,43.8,0,0,0
68.5,0.733,0.748,0.732,50.7,0,0,0
76.5,0.722,0.737,0.72,58.8,0,0,0
84.5,0.712,0.725,0.709,68.1,0,0,0
92.5,0.701,0.715,0.698,78.8,0,0,0
101,0.692,0.705,0.688,91.3,0,0,0
109,0.682,0.694,0.678,106,0,0,0
117,0.673,0.684,0.668,122,0,0,0
125,0.664,0.675,0.658,142,0,0,0.295
141,0.646,0.657,0.639,164,0,0.163,1.48
157,0.629,0.639,0.622,190,1.14,1.69,3.54
173,0.612,0.623,0.604,220,3.7,4.58,6.09
189,0.596,0.606,0.588,255,7.17,8.17,8.62
205,0.581,0.591,0.572,295,10.7,11.6,10.7
221,0.566,0.575,0.556,342,13.4,14,11.9
237,0.552,0.56,0.542,396,14.8,14.9,12.2
253,0.538,0.546,0.527,459,14.5,14.2,11.5
285,0.512,0.519,0.499,531,12.6,12.1,10.1
317,0.487,0.493,0.473,615,9.72,9.06,8.13
349,0.464,0.468,0.449,712,6.4,5.78,5.96
381,0.442,0.445,0.426,825,3.36,2.91,3.88
413,0.421,0.424,0.404,955,1.19,0.927,2.15
445,0.402,0.403,0.384,1.11E+03,0.132,0.0408,0.916
477,0.383,0.383,0.364,1.28E+03,0,0,0.23
509,0.365,0.366,0.346,1.48E+03,0,0,0
573,0.332,0.332,0.313,1.72E+03,0,0,0
637,0.302,0.301,0.283,1.99E+03,0,0,0
701,0.275,0.274,0.256,2.30E+03,0,0,0
765,0.251,0.249,0.232,2.67E+03,0,0,0
829,0.229,0.227,0.211,3.09E+03,0,0,0.0599
893,0.21,0.207,0.192,3.58E+03,0,0,0.214
957,0.191,0.189,0.175,4.15E+03,0.0297,0,0.441
1.02E+03,0.176,0.173,0.16,4.80E+03,0.333,0,0.685
1.15E+03,0.148,0.145,0.133,5.56E+03,0.856,0,0.875
1.28E+03,0.126,0.122,0.112,6.44E+03,0,0,0
1.40E+03,0.107,0.104,0.0952,7.46E+03,0,0,0
1.53E+03,0.0921,0.0888,0.0816,8.63E+03,0,0,0
1.66E+03,0.0789,0.0761,0.0698,,,,
1.79E+03,0.068,0.066,0.0595,,,,
1.92E+03,0.0583,0.0564,0.0513,,,,
2.04E+03,0.0513,0.0483,0.0443,,,,
2.30E+03,0.0387,0.0359,0.0337,,,,
2.56E+03,0.0301,0.0295,0.0266,,,,
2.81E+03,0.0247,0.0256,0.0215,,,,
3.07E+03,0.0216,0.0224,0.0174,,,,
3.32E+03,0.0189,0.0193,0.0158,,,,
3.58E+03,0.0151,0.0155,0.0134,,,,
3.84E+03,0.0124,0.0136,0.0119,,,,
4.09E+03,0.0109,0.0122,0.0109,,,,
4.60E+03,0.00994,0.00891,0.00725,,,,
5.12E+03,0.00844,0.0092,0.00557,,,,
5.63E+03,0.00853,0.00952,0.0061,,,,
6.14E+03,0.00916,0.00825,0.00694,,,,
6.65E+03,0.0103,0.00639,0.0036,,,,
7.16E+03,0.0109,0.00543,0.00114,,,,
7.68E+03,0.00812,0.00406,0.00177,,,,
8.19E+03,0.00608,0.00494,0.00348,,,,
9.21E+03,0.00562,0.00555,0.00524,,,,
1.02E+04,0.00722,0.00818,0.00403,,,,
1.13E+04,0.00657,0.00543,0.0053,,,,
1.23E+04,0.00748,0.00695,0.00469,,,,
1.33E+04,0.00651,0.00676,0.00642,,,,
1.43E+04,0.00637,0.00665,0.00603,,,,
1.54E+04,0.00543,0.0045,0.00287,,,,
1.64E+04,0.00364,0.00515,0.00297,,,,
1.84E+04,0.00485,0.00502,0.00398,,,,
2.05E+04,0.00631,0.00368,0.0046,,,,
2.25E+04,0.00605,0.0042,0.00455,,,,
2.46E+04,0.00585,0.00821,0.00701,,,,
2.66E+04,0.00448,0.0062,0.00725,,,,
2.87E+04,0.00279,0.00527,0.0035,,,,
3.07E+04,0.00307,0.00568,0.00191,,,,
3.28E+04,0.00409,0.00559,8.71E-05,,,,
3.69E+04,0.00447,0.00588,0.000347,,,,
4.10E+04,0.00621,0.00345,0.00658,,,,
4.51E+04,0.00531,0.00889,0.00361,,,,
4.91E+04,0.000972,0.00402,0.00313,,,,
5.32E+04,0.00202,0.0048,0.00139,,,,
5.73E+04,0.00521,0.00291,0.00461,,,,
6.14E+04,0.00365,0.00647,0.00405,,,,
6.55E+04,0.00441,0.00363,0.00253,,,,
7.37E+04,0.00217,0.00366,0.00337,,,,
8.19E+04,0.00344,0.00373,0.00257,,,,
9.01E+04,0.00297,0.00499,0.00155,,,,
9.83E+04,0.00335,0.00568,0.00418,,,,
1.06E+05,0.00462,0.00281,0.0035,,,,
1.15E+05,0.00215,0.00201,0.00164,,,,
1.23E+05,0.0026,0.00334,0.00246,,,,
1.31E+05,0.00269,0.00152,0.00275,,,,
1.47E+05,0.00446,0.00256,0.00194,,,,
1.64E+05,0.00311,0.00168,0.00397,,,,
1.80E+05,0.00238,0.00409,0.00235,,,,
1.97E+05,0.00159,0.00342,0.00175,,,,
2.13E+05,0.00171,0.000245,0.000936,,,,
2.29E+05,0.00302,0.00155,0.00219,,,,
2.46E+05,0.00232,0.0018,0.00281,,,,
2.62E+05,0.00307,0.00149,0.00234,,,,
2.95E+05,0.00266,0.00233,0.000674,,,,
3.28E+05,0.00395,0.00367,0.000752,,,,
3.60E+05,0.00274,0.0035,0.0004,,,,
3.93E+05,0.00371,0.0012,0.000972,,,,
4.26E+05,0.00287,0.0016,0.00202,,,,
4.59E+05,0.00197,0.00189,0.000924,,,,
4.92E+05,0.00212,0.0012,0.000587,,,,
5.24E+05,0.00257,0.00103,0.0013,,,,
5.90E+05,0.00258,0.000555,0.000752,,,,
6.55E+05,0.00271,0.000685,0.00306,,,,
7.21E+05,0.00163,0.000445,0.0016,,,,
7.86E+05,0.00239,0.000171,0.00156,,,,
8.52E+05,0.00142,0.000455,0.00224,,,,
9.18E+05,0.00145,0,0.00269,,,,
9.83E+05,0.00146,0.000228,0.00145,,,,
1.05E+06,0.00125,0.00017,0.00133,,,,
1.18E+06,0.000678,0.000664,0.00105,,,,
1.31E+06,0.000626,0.000307,0.0014,,,,
1.44E+06,0.000196,0.00199,0.00103,,,,
1.57E+06,0.00127,0.000921,0.00149,,,,
1.70E+06,0.000464,0.000909,0.000546,,,,
1.84E+06,0,0.00104,0.00129,,,,
1.97E+06,0.000485,0.00047,0.00125,,,,
2.10E+06,0.00247,0.000296,0.00128,,,,
2.36E+06,0.0014,0.000822,0.00196,,,,
2.62E+06,0.00369,0.00119,0.00117,,,,
2.88E+06,0.00435,0.0025,0.00236,,,,
3.15E+06,0.00445,0.00171,0.00169,,,,
3.41E+06,0.00525,0.00291,0.000256,,,,
3.67E+06,0.00311,0.00302,0.00118,,,,
3.93E+06,0.00142,0.00234,0.00299,,,,
4.19E+06,0,0,0,,,,
4.72E+06,0,0,0,,,,
5.24E+06,0,0,0,,,,
5.77E+06,0,0,0,,,,
6.29E+06,0,0,0,,,,
6.82E+06,0,0,0,,,,
7.34E+06,0,0,0,,,,
7.86E+06,0,0,0,,,,
8.39E+06,0,0,0,,,,
9.44E+06,0,0,0,,,,
1.05E+07,0,0,0,,,,
1.15E+07,0,0,0,,,,
1.26E+07,0,0,0,,,,
1.36E+07,0,0,0,,,,
1.47E+07,0,0,0,,,,
1.57E+07,0,0,0,,,,
1.68E+07,0,0,0,,,,
1.89E+07,0,0,0,,,,
2.10E+07,0,0,0,,,,
2.31E+07,0,0,0,,,,
2.52E+07,0,0,0,,,,
2.73E+07,0,0,0,,,,
2.94E+07,0,0,0,,,,
3.15E+07,0,0,0,,,,
3.36E+07,0,0,0,,,,
3.77E+07,0,0,0,,,,
4.19E+07,0,0,0,,,,
4.61E+07,0,0,0,,,,
5.03E+07,0,0,0,,,,
5.45E+07,0,0,0,,,,
5.87E+07,0,0,0,,,,