X Lag Time,Record 22: F12 1,Record 23: F12 2,Record 24: F12 3,X Intensity,Record 22: F12 1,Record 23: F12 2,Record 24: F12 3
0.5,0.848,0.838,0.825,0.4,0,0,0
1,0.846,0.838,0.824,0.463,0,0,0
1.5,0.84,0.833,0.817,0.536,0,0,0
2,0.835,0.829,0.812,0.621,0,0,0
2.5,0.832,0.823,0.808,0.719,0,0,0
3,0.829,0.822,0.805,0.833,0,0,0
3.5,0.825,0.818,0.802,0.965,0,0,0
4,0.822,0.815,0.798,1.12,0,0,0
4.5,0.818,0.81,0.795,1.29,0,0,0
5.5,0.812,0.805,0.789,1.5,0,0,0
6.5,0.806,0.798,0.781,1.74,0,0,0
7.5,0.802,0.795,0.777,2.01,0,0,0
8.5,0.797,0.79,0.772,2.33,0,0,0
9.5,0.792,0.785,0.768,2.7,0,0,0
10.5,0.788,0.781,0.764,3.12,0,0,0
11.5,0.784,0.777,0.76,3.62,0,0,0
12.5,0.78,0.772,0.754,4.19,0,0,0
14.5,0.772,0.763,0.747,4.85,0,0,0
16.5,0.765,0.756,0.738,5.61,0,0,0
18.5,0.758,0.75,0.731,6.5,0,0,0
20.5,0.751,0.742,0.723,7.53,0,0.0704,0
22.5,0.744,0.736,0.717,8.72,0.373,1.03,0.788
24.5,0.738,0.73,0.711,10.1,1.63,2.29,2.09
26.5,0.732,0.724,0.705,11.7,2.9,3.03,3.06
28.5,0.727,0.718,0.699,13.5,3.27,2.83,3.07
32.5,0.717,0.707,0.688,15.7,2.52,1.86,2.1
36.5,0.707,0.697,0.678,18.2,1.21,0.739,0.783
40.5,0.697,0.689,0.669,21,0.2,0.0589,0
44.5,0.689,0.68,0.66,24.4,0,0,0
48.5,0.681,0.672,0.652,28.2,0,0,0
52.5,0.674,0.665,0.644,32.7,0,0,0
56.5,0.667,0.658,0.637,37.8,0,0,0
60.5,0.661,0.652,0.631,43.8,0,0,0
68.5,0.649,0.641,0.619,50.7,0,0,0
76.5,0.638,0.631,0.609,58.8,0,0,0
84.5,0.629,0.621,0.599,68.1,0,0,0
92.5,0.621,0.613,0.591,78.8,0,0,0
101,0.612,0.605,0.582,91.3,0,0,0
109,0.604,0.598,0.575,106,0,0,0
117,0.598,0.591,0.568,122,0,0,0.156
125,0.591,0.585,0.561,142,0,0,0.381
141,0.578,0.573,0.549,164,0,0,0.617
157,0.567,0.561,0.537,190,0,0,0.938
173,0.556,0.551,0.526,220,0,0,1.51
189,0.545,0.54,0.516,255,0.543,0,2.48
205,0.535,0.531,0.506,295,2.94,1.58,3.9
221,0.526,0.522,0.496,342,6.89,4.95,5.68
237,0.516,0.512,0.487,396,11.2,9.19,7.56
253,0.507,0.504,0.478,459,14.4,13,9.21
285,0.49,0.487,0.46,531,15.5,15.1,10.3
317,0.473,0.47,0.444,615,14.2,15,10.5
349,0.456,0.455,0.427,712,10.9,12.7,9.91
381,0.441,0.44,0.412,825,6.69,8.95,8.45
413,0.426,0.426,0.398,955,2.87,4.83,6.43
445,0.412,0.413,0.383,1.11E+03,0.553,1.59,4.23
477,0.399,0.4,0.37,1.28E+03,0,0.0199,2.25
509,0.386,0.387,0.357,1.48E+03,0,0,0.835
573,0.361,0.364,0.333,1.72E+03,0,0,0.123
637,0.338,0.342,0.31,1.99E+03,0,0,0
701,0.318,0.322,0.29,2.30E+03,0,0,0
765,0.299,0.303,0.271,2.67E+03,0,0,0
829,0.281,0.286,0.254,3.09E+03,0,0,0
893,0.265,0.27,0.238,3.58E+03,0,0,0
957,0.25,0.255,0.224,4.15E+03,0,0,0.274
1.02E+03,0.236,0.241,0.211,4.80E+03,0.005,0.0608,0.839
1.15E+03,0.21,0.216,0.187,5.56E+03,1.16,1.04,1.52
1.28E+03,0.187,0.193,0.166,6.44E+03,0,0,0
1.40E+03,0.168,0.173,0.147,7.46E+03,0,0,0
1.53E+03,0.151,0.156,0.131,8.63E+03,0,0,0
1.66E+03,0.136,0.142,0.118,,,,
1.79E+03,0.122,0.129,0.105,,,,
1.92E+03,0.109,0.117,0.0947,,,,
2.04E+03,0.0994,0.106,0.0859,,,,
2.30E+03,0.0831,0.0885,0.0704,,,,
2.56E+03,0.0711,0.0747,0.0569,,,,
2.81E+03,0.0613,0.0639,0.0467,,,,
3.07E+03,0.0531,0.0549,0.0381,,,,
3.32E+03,0.046,0.0475,0.0327,,,,
3.58E+03,0.0408,0.0431,0.0283,,,,
3.84E+03,0.0365,0.0399,0.0248,,,,
4.09E+03,0.0336,0.0381,0.0223,,,,
4.60E+03,0.0295,0.0351,0.0197,,,,
5.12E+03,0.0279,0.0308,0.0173,,,,
5.63E+03,0.0266,0.0272,0.0149,,,,
6.14E+03,0.0242,0.0247,0.0134,,,,
6.65E+03,0.0205,0.0219,0.0113,,,,
7.16E+03,0.0172,0.0183,0.0108,,,,
7.68E+03,0.0157,0.0187,0.00918,,,,
8.19E+03,0.0163,0.0202,0.00951,,,,
9.21E+03,0.0189,0.022,0.0103,,,,
1.02E+04,0.0171,0.0218,0.0117,,,,
1.13E+04,0.016,0.0216,0.0125,,,,
1.23E+04,0.0169,0.0179,0.0106,,,,
1.33E+04,0.0166,0.0156,0.00849,,,,
1.43E+04,0.0152,0.0162,0.00691,,,,
1.54E+04,0.0149,0.0174,0.00482,,,,
1.64E+04,0.0128,0.0171,0.00399,,,,
1.84E+04,0.0106,0.0194,0.00294,,,,
2.05E+04,0.00913,0.0175,0.00788,,,,
2.25E+04,0.0125,0.0175,0.00853,,,,
2.46E+04,0.012,0.0137,0.00803,,,,
2.66E+04,0.014,0.0137,0.00571,,,,
2.87E+04,0.0128,0.0135,0.00465,,,,
3.07E+04,0.0129,0.0117,0.00447,,,,
3.28E+04,0.0128,0.0146,0.00476,,,,
3.69E+04,0.00762,0.0163,0.00956,,,,
4.10E+04,0.0075,0.00966,0.00587,,,,
4.51E+04,0.00629,0.00977,0.00711,,,,
4.91E+04,0.00488,0.0129,0.00559,,,,
5.32E+04,0.00567,0.0109,0.00826,,,,
5.73E+04,0.00609,0.0134,0.0081,,,,
6.14E+04,0.0101,0.0118,0.00351,,,,
6.55E+04,0.0131,0.0118,0.00523,,,,
7.37E+04,0.00879,0.0162,0.00324,,,,
8.19E+04,0.00545,0.0109,0.00572,,,,
9.01E+04,0.00435,0.0124,0.00361,,,,
9.83E+04,0.0066,0.0128,0.0057,,,,
1.06E+05,0.00692,0.0117,0.00333,,,,
1.15E+05,0.00161,0.00968,0.00449,,,,
1.23E+05,0.00315,0.0114,0.00295,,,,
1.31E+05,0.0043,0.0101,0.00342,,,,
1.47E+05,0.00322,0.0114,0.0018,,,,
1.64E+05,0.00512,0.00845,0.00479,,,,
1.80E+05,0.00404,0.0097,0.00358,,,,
1.97E+05,0.00518,0.00857,0.00529,,,,
2.13E+05,0.00433,0.00897,0.0032,,,,
2.29E+05,0.00604,0.00647,0.00309,,,,
2.46E+05,0.00466,0.007,0.00465,,,,
2.62E+05,0.00421,0.0086,0.00364,,,,
2.95E+05,0.00667,0.00505,0.00222,,,,
3.28E+05,0.00531,0.00747,0.00242,,,,
3.60E+05,0.00556,0.00738,0.00321,,,,
3.93E+05,0.005,0.00554,0.00203,,,,
4.26E+05,0.00632,0.00594,0.00286,,,,
4.59E+05,0.00345,0.0045,0.00224,,,,
4.92E+05,0.00354,0.00451,0.00279,,,,
5.24E+05,0.00366,0.00297,0.00137,,,,
5.90E+05,0.00464,0.00385,0.000682,,,,
6.55E+05,0.00746,0.00298,0.001,,,,
7.21E+05,0.00609,0.00254,0.000611,,,,
7.86E+05,0.00609,0.0029,0.000674,,,,
8.52E+05,0.00365,0.00381,0.000688,,,,
9.18E+05,0.0023,0.00178,0.00131,,,,
9.83E+05,0.00428,0.00287,0.000673,,,,
1.05E+06,0.00568,0.000605,0.00167,,,,
1.18E+06,0.00364,0.00191,0.00131,,,,
1.31E+06,0.00425,0.00143,0.00107,,,,
1.44E+06,0.0057,0.00169,0.000233,,,,
1.57E+06,0.00391,0.000749,0,,,,
1.70E+06,0.00634,0.000793,8.46E-05,,,,
1.84E+06,0.00555,0.00063,0.00201,,,,
1.97E+06,0.00505,0.000815,0.00226,,,,
2.10E+06,0.00474,0.000102,0.000822,,,,
2.36E+06,0.00711,0.000531,0.00256,,,,
2.62E+06,0.00729,0.000508,0.00143,,,,
2.88E+06,0.00833,0,0.00222,,,,
3.15E+06,0.00939,0.0013,0.00116,,,,
3.41E+06,0.00872,0.0016,0.00197,,,,
3.67E+06,0.00934,0.00191,0.000975,,,,
3.93E+06,0.00699,0.00166,0.00218,,,,
4.19E+06,0,0,0,,,,
4.72E+06,0,0,0,,,,
5.24E+06,0,0,0,,,,
5.77E+06,0,0,0,,,,
6.29E+06,0,0,0,,,,
6.82E+06,0,0,0,,,,
7.34E+06,0,0,0,,,,
7.86E+06,0,0,0,,,,
8.39E+06,0,0,0,,,,
9.44E+06,0,0,0,,,,
1.05E+07,0,0,0,,,,
1.15E+07,0,0,0,,,,
1.26E+07,0,0,0,,,,
1.36E+07,0,0,0,,,,
1.47E+07,0,0,0,,,,
1.57E+07,0,0,0,,,,
1.68E+07,0,0,0,,,,
1.89E+07,0,0,0,,,,
2.10E+07,0,0,0,,,,
2.31E+07,0,0,0,,,,
2.52E+07,0,0,0,,,,
2.73E+07,0,0,0,,,,
2.94E+07,0,0,0,,,,
3.15E+07,0,0,0,,,,
3.36E+07,0,0,0,,,,
3.77E+07,0,0,0,,,,
4.19E+07,0,0,0,,,,
4.61E+07,0,0,0,,,,
5.03E+07,0,0,0,,,,
5.45E+07,0,0,0,,,,
5.87E+07,0,0,0,,,,