X Lag Time,Record 1: EVs_3e10_BSA_010mg_000rpm_00-00min_NA_No1_230831 1,Record 2: EVs_3e10_BSA_010mg_000rpm_00-00min_NA_No1_230831 2,Record 3: EVs_3e10_BSA_010mg_000rpm_00-00min_NA_No1_230831 3,X Intensity,Record 1: EVs_3e10_BSA_010mg_000rpm_00-00min_NA_No1_230831 1,Record 2: EVs_3e10_BSA_010mg_000rpm_00-00min_NA_No1_230831 2,Record 3: EVs_3e10_BSA_010mg_000rpm_00-00min_NA_No1_230831 3
0.5,0.888,0.892,0.891,0.4,0,0,0
1,0.877,0.881,0.88,0.463,0,0,0
1.5,0.854,0.858,0.861,0.536,0,0,0
2,0.836,0.84,0.84,0.621,0,0,0
2.5,0.818,0.821,0.824,0.719,0,0,0
3,0.798,0.805,0.805,0.833,0,0,0
3.5,0.783,0.787,0.785,0.965,0,0,0
4,0.766,0.771,0.771,1.12,0,0,0
4.5,0.75,0.754,0.755,1.29,0,0,0
5.5,0.718,0.724,0.724,1.5,0,0,0
6.5,0.687,0.692,0.692,1.74,0,0,0
7.5,0.66,0.666,0.667,2.01,0,0,0
8.5,0.634,0.64,0.639,2.33,0,0,0
9.5,0.608,0.614,0.614,2.7,0,0,0
10.5,0.585,0.59,0.591,3.12,0,0,0
11.5,0.561,0.569,0.569,3.62,0,0,0
12.5,0.541,0.549,0.548,4.19,0,0,0
14.5,0.501,0.509,0.508,4.85,0.51,0.327,0
16.5,0.464,0.473,0.472,5.61,2.3,2.09,1.48
18.5,0.432,0.44,0.44,6.5,4.8,4.78,4.33
20.5,0.403,0.412,0.411,7.53,7.2,7.43,7.49
22.5,0.376,0.386,0.385,8.72,8.85,9.25,9.88
24.5,0.353,0.361,0.36,10.1,9.47,9.85,10.8
26.5,0.331,0.34,0.338,11.7,9.1,9.25,10.2
28.5,0.312,0.321,0.319,13.5,7.96,7.76,8.41
32.5,0.277,0.287,0.285,15.7,6.37,5.79,5.93
36.5,0.248,0.258,0.256,18.2,4.65,3.78,3.45
40.5,0.223,0.233,0.23,21,3.05,2.07,1.51
44.5,0.202,0.212,0.21,24.4,1.76,0.854,0.377
48.5,0.184,0.193,0.192,28.2,0.858,0.208,0
52.5,0.169,0.178,0.176,32.7,0.369,0.0902,0
56.5,0.155,0.164,0.163,37.8,0.251,0.385,0.0294
60.5,0.144,0.153,0.152,43.8,0.43,0.943,0.302
68.5,0.125,0.134,0.132,50.7,0.813,1.62,0.851
76.5,0.109,0.119,0.117,58.8,1.31,2.27,1.6
84.5,0.097,0.107,0.106,68.1,1.82,2.82,2.41
92.5,0.0872,0.0971,0.0959,78.8,2.3,3.19,3.16
101,0.0789,0.0889,0.0875,91.3,2.67,3.37,3.72
109,0.0729,0.0819,0.0806,106,2.92,3.35,4.03
117,0.0674,0.0758,0.0746,122,3.02,3.17,4.05
125,0.0633,0.0707,0.0699,142,2.99,2.86,3.8
141,0.0555,0.0618,0.0618,164,2.84,2.46,3.34
157,0.0498,0.0548,0.0553,190,2.59,2.02,2.73
173,0.0452,0.0497,0.0492,220,2.27,1.57,2.05
189,0.0408,0.0453,0.0448,255,1.9,1.15,1.4
205,0.0366,0.0415,0.0405,295,1.52,0.784,0.837
221,0.0328,0.0382,0.0373,342,1.16,0.486,0.411
237,0.0302,0.035,0.034,396,0.828,0.263,0.143
253,0.0281,0.0332,0.0315,459,0.547,0.114,0.0207
285,0.0245,0.0281,0.0269,531,0.326,0.0313,0
317,0.0215,0.0251,0.0228,615,0.166,0,0
349,0.019,0.0229,0.0198,712,0.0657,0,0
381,0.0162,0.0201,0.0179,825,0.0153,0.00857,0
413,0.0131,0.0167,0.0162,955,0,0.0294,0
445,0.0119,0.0157,0.0144,1.11E+03,0,0.0634,0
477,0.0099,0.0152,0.0124,1.28E+03,0,0.109,0
509,0.00879,0.0135,0.011,1.48E+03,0,0.164,0
573,0.00735,0.0105,0.00838,1.72E+03,0,0.223,0
637,0.00612,0.00828,0.00715,1.99E+03,0,0.282,0.00212
701,0.00557,0.00706,0.00623,2.30E+03,0,0.337,0.0205
765,0.00433,0.00582,0.00558,2.67E+03,0,0.383,0.0591
829,0.00457,0.00414,0.00507,3.09E+03,0,0.416,0.114
893,0.0036,0.00356,0.00506,3.58E+03,0,0.431,0.176
957,0.00237,0.00392,0.00443,4.15E+03,0,0.428,0.235
1.02E+03,0.00158,0.00318,0.00357,4.80E+03,0,0.403,0.277
1.15E+03,0.0013,0.00108,0.00277,5.56E+03,0,0.358,0.294
1.28E+03,0.000632,0.00104,0.00169,6.44E+03,0,0,0
1.40E+03,0.000839,0.000719,0.000898,7.46E+03,0,0,0
1.53E+03,0.000708,0.000775,0.000964,8.63E+03,0,0,0
1.66E+03,0.000886,0.000523,0.000739,,,,
1.79E+03,0.000979,0.000478,0.00068,,,,
1.92E+03,0.00122,0.000706,0.000323,,,,
2.04E+03,0.000543,0.000671,0.000171,,,,
2.30E+03,0.000331,0.000968,0.00127,,,,
2.56E+03,0.000537,0.00106,0.000705,,,,
2.81E+03,0.00122,0.00129,0.000657,,,,
3.07E+03,0.00079,0.00101,0.00102,,,,
3.32E+03,0.000615,0.000853,0.00145,,,,
3.58E+03,0.000445,0.000131,0.000648,,,,
3.84E+03,0.000892,0.000446,0.000578,,,,
4.09E+03,0.000637,0.000521,0.000598,,,,
4.60E+03,0.000226,0.000709,0.000794,,,,
5.12E+03,0.000492,0.00067,0.00142,,,,
5.63E+03,0.000354,0.000373,0.00109,,,,
6.14E+03,0.000296,0.000305,0.00129,,,,
6.65E+03,0.000439,7.17E-06,0.000624,,,,
7.16E+03,0.000253,0.000706,0.00081,,,,
7.68E+03,0.000243,0.000948,0.000657,,,,
8.19E+03,0.000144,0.000653,0.000419,,,,
9.21E+03,0.000956,0.00041,0.000984,,,,
1.02E+04,0.000315,0.000796,0.00108,,,,
1.13E+04,0.000675,0.000598,0.000709,,,,
1.23E+04,0.000643,0.000466,0.000523,,,,
1.33E+04,0.000488,0.000202,0.000528,,,,
1.43E+04,0.000275,0.00059,0.000823,,,,
1.54E+04,0.000893,0.000443,0.000773,,,,
1.64E+04,0.000458,0.000753,0.000331,,,,
1.84E+04,0.00022,0.000439,0.000389,,,,
2.05E+04,0.000439,0.000299,0.000174,,,,
2.25E+04,0.000476,0.000264,0.000296,,,,
2.46E+04,0.000365,0.000474,0.00091,,,,
2.66E+04,0.000576,0.000387,0.000243,,,,
2.87E+04,0.00075,0.00103,0.000532,,,,
3.07E+04,0.000368,0.000369,0.00047,,,,
3.28E+04,0.000256,0.000459,0.000501,,,,
3.69E+04,0.000354,0.000304,0.000467,,,,
4.10E+04,0.000367,0.000538,0.000628,,,,
4.51E+04,0.000522,0.000326,0.000576,,,,
4.91E+04,0.000381,0.000272,0.000366,,,,
5.32E+04,0.000337,0.000392,0.000542,,,,
5.73E+04,0.000448,0.000661,0.000589,,,,
6.14E+04,0.000289,0.000479,0.000491,,,,
6.55E+04,0.000315,0.000228,0.000517,,,,
7.37E+04,0.000299,0.000264,0.000384,,,,
8.19E+04,0.000388,0.000147,0.00054,,,,
9.01E+04,0.000399,0.000341,0.000338,,,,
9.83E+04,0.000204,0.000377,0.000625,,,,
1.06E+05,0.000221,0.000595,0.000558,,,,
1.15E+05,0.00045,0.000456,0.000552,,,,
1.23E+05,0.000521,0.000255,0.000398,,,,
1.31E+05,0.000403,0.00031,0.000592,,,,
1.47E+05,0.000307,0.000224,0.000599,,,,
1.64E+05,0.000233,0.000304,0.000347,,,,
1.80E+05,0.00026,0.000431,0.000529,,,,
1.97E+05,0.00023,0.00042,0.00035,,,,
2.13E+05,0.000357,0.000401,0.000521,,,,
2.29E+05,0.000306,0.000392,0.000528,,,,
2.46E+05,0.000394,0.000345,0.000338,,,,
2.62E+05,0.000381,0.000171,0.000326,,,,
2.95E+05,0.000444,0.000404,0.000647,,,,
3.28E+05,0.000412,0.000187,0.000387,,,,
3.60E+05,0.000412,0.00027,0.000379,,,,
3.93E+05,0.000392,0.000217,0.000429,,,,
4.26E+05,0.000259,0.000178,0.000483,,,,
4.59E+05,0.000257,0.000167,0.000401,,,,
4.92E+05,0.000359,0.000122,0.000391,,,,
5.24E+05,0.000473,0.00022,0.000481,,,,
5.90E+05,0.000277,0.000296,0.00048,,,,
6.55E+05,0.000498,0.000201,0.000727,,,,
7.21E+05,0.00051,0.000392,0.000609,,,,
7.86E+05,0.000451,0.000393,0.00055,,,,
8.52E+05,0.000307,0.000349,0.000452,,,,
9.18E+05,0.000496,0.000293,0.000816,,,,
9.83E+05,0.00056,0.000256,0.000456,,,,
1.05E+06,0.000165,0.000127,0.000481,,,,
1.18E+06,0.000189,0.000361,0.000425,,,,
1.31E+06,0.000205,0.000313,0.000865,,,,
1.44E+06,0.000131,0.000307,0.000347,,,,
1.57E+06,8.60E-05,0.000219,0.000701,,,,
1.70E+06,0.000102,0.000322,0.000407,,,,
1.84E+06,6.02E-05,0.000139,0.000256,,,,
1.97E+06,1.56E-05,0.000107,9.63E-05,,,,
2.10E+06,0.000414,0.000449,0.000381,,,,
2.36E+06,0.000351,0.00032,0.00079,,,,
2.62E+06,0.000164,0.000396,0.000906,,,,
2.88E+06,0.000229,0.000278,0.00065,,,,
3.15E+06,0.000596,0.000433,0.000801,,,,
3.41E+06,0.00042,0.000636,0.000727,,,,
3.67E+06,0.000242,0.000624,0.000948,,,,
3.93E+06,0.000354,0.000651,0.000743,,,,
4.19E+06,0,0,0,,,,
4.72E+06,0,0,0,,,,
5.24E+06,0,0,0,,,,
5.77E+06,0,0,0,,,,
6.29E+06,0,0,0,,,,
6.82E+06,0,0,0,,,,
7.34E+06,0,0,0,,,,
7.86E+06,0,0,0,,,,
8.39E+06,0,0,0,,,,
9.44E+06,0,0,0,,,,
1.05E+07,0,0,0,,,,
1.15E+07,0,0,0,,,,
1.26E+07,0,0,0,,,,
1.36E+07,0,0,0,,,,
1.47E+07,0,0,0,,,,
1.57E+07,0,0,0,,,,
1.68E+07,0,0,0,,,,
1.89E+07,0,0,0,,,,
2.10E+07,0,0,0,,,,
2.31E+07,0,0,0,,,,
2.52E+07,0,0,0,,,,
2.73E+07,0,0,0,,,,
2.94E+07,0,0,0,,,,
3.15E+07,0,0,0,,,,
3.36E+07,0,0,0,,,,
3.77E+07,0,0,0,,,,
4.19E+07,0,0,0,,,,
4.61E+07,0,0,0,,,,
5.03E+07,0,0,0,,,,
5.45E+07,0,0,0,,,,
5.87E+07,0,0,0,,,,