X Lag Time,Record 1: JJ1_50mg_PS2_500ug_000rpm_00-00min_NA_No2_230706 1,Record 2: JJ1_50mg_PS2_500ug_000rpm_00-00min_NA_No2_230706 2,Record 3: JJ1_50mg_PS2_500ug_000rpm_00-00min_NA_No2_230706 3,X Intensity,Record 1: JJ1_50mg_PS2_500ug_000rpm_00-00min_NA_No2_230706 1,Record 2: JJ1_50mg_PS2_500ug_000rpm_00-00min_NA_No2_230706 2,Record 3: JJ1_50mg_PS2_500ug_000rpm_00-00min_NA_No2_230706 3
0.5,0.839,0.841,0.845,0.4,0,0,0
1,0.826,0.827,0.83,0.463,0,0,0
1.5,0.806,0.807,0.81,0.536,0,0,0
2,0.788,0.791,0.791,0.621,0,0,0
2.5,0.77,0.771,0.776,0.719,0,0,0
3,0.754,0.754,0.759,0.833,0,0,0
3.5,0.738,0.74,0.74,0.965,0,0,0
4,0.722,0.722,0.725,1.12,0,0,0
4.5,0.704,0.706,0.708,1.29,0,0,0
5.5,0.675,0.675,0.677,1.5,0,0,0
6.5,0.645,0.645,0.647,1.74,0,0,0
7.5,0.618,0.619,0.619,2.01,0,0,0
8.5,0.59,0.593,0.593,2.33,0,0,0
9.5,0.567,0.565,0.567,2.7,0,0,0
10.5,0.542,0.542,0.54,3.12,0,0,0
11.5,0.519,0.518,0.518,3.62,0,0,0
12.5,0.498,0.497,0.495,4.19,0,0,0
14.5,0.456,0.455,0.454,4.85,0,0,0
16.5,0.418,0.418,0.414,5.61,0,0,0
18.5,0.383,0.382,0.38,6.5,0,0,0
20.5,0.351,0.35,0.348,7.53,0,0.229,0
22.5,0.323,0.322,0.32,8.72,2.16,2.83,2.05
24.5,0.296,0.294,0.292,10.1,6.8,7.47,7.05
26.5,0.273,0.27,0.269,11.7,12.4,12.6,13.2
28.5,0.251,0.249,0.246,13.5,16.9,16.6,18.1
32.5,0.211,0.21,0.206,15.7,18.7,18.1,19.8
36.5,0.179,0.177,0.174,18.2,17.4,16.7,17.8
40.5,0.151,0.149,0.146,21,13.5,13,12.9
44.5,0.127,0.126,0.123,24.4,8.21,8.12,7.01
48.5,0.108,0.106,0.103,28.2,3.43,3.63,2.22
52.5,0.0913,0.0908,0.0873,32.7,0.584,0.795,0
56.5,0.0772,0.0763,0.0736,37.8,0,0,0
60.5,0.066,0.065,0.0623,43.8,0,0,0
68.5,0.0474,0.0468,0.0445,50.7,0,0,0
76.5,0.034,0.0344,0.0325,58.8,0,0,0
84.5,0.0239,0.025,0.0238,68.1,0,0,0
92.5,0.0168,0.0187,0.0176,78.8,0,0,0
101,0.0115,0.0149,0.0131,91.3,0,0,0
109,0.00872,0.0108,0.0108,106,0,0,0
117,0.00648,0.00778,0.00817,122,0,0,0
125,0.00469,0.00495,0.00613,142,0,0,0
141,0.00248,0.00254,0.00385,164,0,0,0
157,0.00112,0.0018,0.0027,190,0,0,0
173,1.48E-05,0.00197,0.00187,220,0,0,0
189,0.000592,0.00204,0.00135,255,0,0,0
205,0.00104,0.00169,0.000475,295,0,0,0
221,0.00123,0.00168,0.000704,342,0,0,0
237,0.00176,0.000933,0.00125,396,0,0,0
253,0.00134,0.000395,0.0017,459,0,0,0
285,0.00132,0.000323,0.000948,531,0,0,0
317,0.00141,0.000261,0.00127,615,0,0,0
349,0.00203,0.000651,0.00121,712,0,0,0
381,0.00241,0.000863,0.000636,825,0,0,0
413,0.00244,0.000877,0.000601,955,0,0,0
445,0.00208,0.000412,0.00068,1.11E+03,0,0,0
477,0.00208,0.000282,0.000544,1.28E+03,0,0,0
509,0.00109,0.000191,0.000384,1.48E+03,0,0,0
573,0.000602,0.00095,0.00058,1.72E+03,0,0,0
637,0.00123,0.000261,0.000169,1.99E+03,0,0,0
701,0.00143,0.000267,0.000968,2.30E+03,0,0,0
765,0.00121,0,0.00112,2.67E+03,0,0,0
829,0.000895,0.000882,0.00223,3.09E+03,0,0,0
893,0.00184,0.00147,0.0011,3.58E+03,0,0,0
957,0.00256,0.000554,0.000734,4.15E+03,0,0,0
1.02E+03,0.000807,0.000379,0.000996,4.80E+03,0,0,0
1.15E+03,0.000434,0.000797,0.000902,5.56E+03,0,0,0
1.28E+03,0.00128,0.000807,0.000133,6.44E+03,0,0,0
1.40E+03,0.00175,5.43E-05,0.000412,7.46E+03,0,0,0
1.53E+03,0.00119,0.000819,0.000968,8.63E+03,0,0,0
1.66E+03,0.000975,0.000444,0.00103,,,,
1.79E+03,8.63E-05,0.0015,0.000963,,,,
1.92E+03,0.00102,0.00107,0.000641,,,,
2.04E+03,0.000394,0.000904,0.000573,,,,
2.30E+03,0.000805,4.57E-05,0.000276,,,,
2.56E+03,0.000693,0.000679,0.000277,,,,
2.81E+03,5.73E-05,0.000648,0.000204,,,,
3.07E+03,0.000401,0.000545,0.000615,,,,
3.32E+03,0.000103,0.00117,0.000446,,,,
3.58E+03,0.000771,0.000442,0.00122,,,,
3.84E+03,8.69E-05,0.000876,0.000735,,,,
4.09E+03,0.000155,0.000944,0.0011,,,,
4.60E+03,0.000463,0,0.000261,,,,
5.12E+03,0.000493,9.68E-05,2.23E-06,,,,
5.63E+03,0.000466,0.000979,2.54E-05,,,,
6.14E+03,0.000333,0.000355,0.00013,,,,
6.65E+03,2.64E-05,0.000153,0.000372,,,,
7.16E+03,0.000645,0.000464,0.000234,,,,
7.68E+03,0.000172,0.000619,0.000122,,,,
8.19E+03,0.000398,0.000175,0.000154,,,,
9.21E+03,8.43E-06,0.000254,0.000257,,,,
1.02E+04,0.000525,0.000292,0.000172,,,,
1.13E+04,0.000174,0.000195,0.000461,,,,
1.23E+04,0.000291,0.000211,0.000353,,,,
1.33E+04,0.000223,0.000197,9.29E-05,,,,
1.43E+04,0.000511,0.000116,0.000279,,,,
1.54E+04,0.000134,8.32E-05,0.00021,,,,
1.64E+04,0.000174,0.000241,0.000242,,,,
1.84E+04,0.000343,0.000636,0.000323,,,,
2.05E+04,0.000367,0.000308,9.67E-05,,,,
2.25E+04,5.64E-05,0.000242,9.16E-05,,,,
2.46E+04,0.000361,0.000163,0.000155,,,,
2.66E+04,0.000272,8.53E-05,0.000137,,,,
2.87E+04,0.0003,8.83E-05,0.000257,,,,
3.07E+04,9.35E-08,0.00022,0.000172,,,,
3.28E+04,0.000186,0.000224,0.000281,,,,
3.69E+04,3.60E-05,0.000156,7.64E-05,,,,
4.10E+04,0.000278,4.73E-05,0,,,,
4.51E+04,0.000148,0.000472,0.000107,,,,
4.91E+04,0.00017,0,0.000132,,,,
5.32E+04,0.000166,9.66E-05,3.89E-05,,,,
5.73E+04,0,5.89E-05,3.80E-07,,,,
6.14E+04,0.000199,8.01E-05,5.10E-05,,,,
6.55E+04,0.000212,0.000256,8.42E-05,,,,
7.37E+04,0.000235,5.44E-05,0.000134,,,,
8.19E+04,3.44E-05,0.000125,5.66E-05,,,,
9.01E+04,0,0.000126,7.36E-05,,,,
9.83E+04,0.000138,0.000226,0.000144,,,,
1.06E+05,7.67E-05,0.000101,6.11E-05,,,,
1.15E+05,4.45E-05,0.000107,3.30E-05,,,,
1.23E+05,0.000109,0.000139,2.82E-06,,,,
1.31E+05,0,0.000116,0.000175,,,,
1.47E+05,2.32E-05,0.000103,0.000119,,,,
1.64E+05,0.000123,0.000133,2.57E-05,,,,
1.80E+05,0.000198,7.23E-05,0.000192,,,,
1.97E+05,9.11E-05,0.000248,1.97E-05,,,,
2.13E+05,0.000135,6.85E-05,5.39E-05,,,,
2.29E+05,0.000146,6.83E-05,0.000101,,,,
2.46E+05,0.000147,8.47E-05,2.56E-05,,,,
2.62E+05,0.000308,5.07E-05,6.12E-05,,,,
2.95E+05,0.000128,6.05E-05,0.000163,,,,
3.28E+05,0.000227,7.70E-05,0.000112,,,,
3.60E+05,8.56E-05,0.000105,0.000248,,,,
3.93E+05,0.000192,7.60E-05,7.86E-05,,,,
4.26E+05,9.39E-05,0.000109,0.000151,,,,
4.59E+05,0.000128,0.000187,0.00018,,,,
4.92E+05,3.71E-05,0.000204,0.000103,,,,
5.24E+05,0.000329,1.33E-05,1.03E-05,,,,
5.90E+05,0.000691,2.25E-05,0.000281,,,,
6.55E+05,0.000209,8.16E-05,0.00011,,,,
7.21E+05,0.00022,3.43E-05,2.83E-05,,,,
7.86E+05,0.000441,9.68E-05,5.14E-05,,,,
8.52E+05,8.97E-05,5.77E-05,0.00012,,,,
9.18E+05,0.000282,2.44E-06,9.33E-05,,,,
9.83E+05,0.000347,3.49E-05,3.21E-05,,,,
1.05E+06,0.000431,0.000226,0.000465,,,,
1.18E+06,0.00081,8.43E-05,0.000386,,,,
1.31E+06,0.000213,0,0.000248,,,,
1.44E+06,2.02E-05,0.000102,0.000544,,,,
1.57E+06,0.000251,0.000118,0.000431,,,,
1.70E+06,0.000137,1.39E-05,0.000418,,,,
1.84E+06,0.000427,0.000175,0.000354,,,,
1.97E+06,0.000447,0.00025,0.000249,,,,
2.10E+06,0,0,0,,,,
2.36E+06,0,0,0,,,,
2.62E+06,0,0,0,,,,
2.88E+06,0,0,0,,,,
3.15E+06,0,0,0,,,,
3.41E+06,0,0,0,,,,
3.67E+06,0,0,0,,,,
3.93E+06,0,0,0,,,,
4.19E+06,0,0,0,,,,
4.72E+06,0,0,0,,,,
5.24E+06,0,0,0,,,,
5.77E+06,0,0,0,,,,
6.29E+06,0,0,0,,,,
6.82E+06,0,0,0,,,,
7.34E+06,0,0,0,,,,
7.86E+06,0,0,0,,,,
8.39E+06,0,0,0,,,,
9.44E+06,0,0,0,,,,
1.05E+07,0,0,0,,,,
1.15E+07,0,0,0,,,,
1.26E+07,0,0,0,,,,
1.36E+07,0,0,0,,,,
1.47E+07,0,0,0,,,,
1.57E+07,0,0,0,,,,
1.68E+07,0,0,0,,,,
1.89E+07,0,0,0,,,,
2.10E+07,0,0,0,,,,
2.31E+07,0,0,0,,,,
2.52E+07,0,0,0,,,,
2.73E+07,0,0,0,,,,
2.94E+07,0,0,0,,,,
3.15E+07,0,0,0,,,,
3.36E+07,0,0,0,,,,
3.77E+07,0,0,0,,,,
4.19E+07,0,0,0,,,,
4.61E+07,0,0,0,,,,
5.03E+07,0,0,0,,,,
5.45E+07,0,0,0,,,,
5.87E+07,0,0,0,,,,