X Lag Time,Record 1: JJ1_10mg_200rpm_10-00min_No1_230626 1,Record 2: JJ1_10mg_200rpm_10-00min_No1_230626 2,Record 3: JJ1_10mg_200rpm_10-00min_No1_230626 3,X Intensity,Record 1: JJ1_10mg_200rpm_10-00min_No1_230626 1,Record 2: JJ1_10mg_200rpm_10-00min_No1_230626 2,Record 3: JJ1_10mg_200rpm_10-00min_No1_230626 3
0.5,0.851,0.862,0.856,0.4,0,0,0
1,0.849,0.856,0.85,0.463,0,0,0
1.5,0.843,0.849,0.844,0.536,0,0,0
2,0.835,0.84,0.837,0.621,0,0,0
2.5,0.827,0.836,0.832,0.719,0,0,0
3,0.822,0.829,0.826,0.833,0,0,0
3.5,0.816,0.824,0.818,0.965,0,0,0
4,0.812,0.816,0.814,1.12,0,0,0
4.5,0.806,0.812,0.809,1.29,0,0,0
5.5,0.794,0.8,0.796,1.5,0,0,0
6.5,0.783,0.791,0.784,1.74,0,0,0
7.5,0.773,0.779,0.773,2.01,0,0,0
8.5,0.764,0.769,0.763,2.33,0,0,0
9.5,0.755,0.758,0.754,2.7,0,0,0
10.5,0.745,0.748,0.745,3.12,0,0,0
11.5,0.735,0.74,0.735,3.62,0,0,0
12.5,0.728,0.732,0.726,4.19,0,0,0
14.5,0.712,0.715,0.709,4.85,0,0,0
16.5,0.696,0.698,0.693,5.61,0,0,0
18.5,0.682,0.684,0.677,6.5,0,0,0
20.5,0.667,0.67,0.662,7.53,0,0,0
22.5,0.655,0.657,0.649,8.72,0,0,0.578
24.5,0.642,0.642,0.637,10.1,2.33,2.53,3.11
26.5,0.63,0.631,0.624,11.7,6.96,6.73,6.11
28.5,0.619,0.62,0.612,13.5,9.27,8.98,7.58
32.5,0.599,0.599,0.591,15.7,7.01,7.36,6.54
36.5,0.58,0.581,0.573,18.2,2.46,3.21,3.7
40.5,0.564,0.564,0.555,21,0,0,0.95
44.5,0.549,0.548,0.539,24.4,0,0,0
48.5,0.534,0.534,0.525,28.2,0,0,0
52.5,0.522,0.52,0.512,32.7,0,0,0
56.5,0.51,0.509,0.5,37.8,0,0,0
60.5,0.5,0.499,0.49,43.8,0,0,0
68.5,0.482,0.48,0.471,50.7,0,0,0
76.5,0.467,0.464,0.456,58.8,0,0,0
84.5,0.454,0.451,0.443,68.1,0,0,0
92.5,0.442,0.439,0.431,78.8,0,0,0
101,0.434,0.43,0.421,91.3,0,0,0
109,0.425,0.421,0.412,106,0,0,0
117,0.418,0.414,0.404,122,0,0,0
125,0.411,0.408,0.397,142,0,0,0
141,0.399,0.396,0.385,164,0,0,0
157,0.389,0.386,0.375,190,0,0,0
173,0.38,0.377,0.365,220,0,0,0
189,0.372,0.368,0.357,255,0,0,0
205,0.365,0.361,0.349,295,1.53,1.5,1.12
221,0.358,0.354,0.342,342,4.45,4.34,3.54
237,0.35,0.347,0.335,396,7.75,7.6,6.6
253,0.344,0.339,0.328,459,10.3,10.2,9.36
285,0.333,0.327,0.316,531,11.6,11.5,11.1
317,0.321,0.315,0.305,615,11.2,11.2,11.4
349,0.309,0.303,0.294,712,9.5,9.56,10.3
381,0.297,0.293,0.284,825,6.99,7.03,8.19
413,0.286,0.282,0.274,955,4.31,4.3,5.52
445,0.276,0.273,0.263,1.11E+03,2.05,2,2.98
477,0.267,0.264,0.253,1.28E+03,0.587,0.542,1.1
509,0.258,0.255,0.244,1.48E+03,0,0,0.144
573,0.24,0.237,0.226,1.72E+03,0,0,0
637,0.223,0.221,0.209,1.99E+03,0,0,0
701,0.207,0.205,0.194,2.30E+03,0,0,0
765,0.193,0.192,0.181,2.67E+03,0,0,0
829,0.18,0.18,0.17,3.09E+03,0,0,0
893,0.169,0.168,0.158,3.58E+03,0.0147,0,0
957,0.157,0.157,0.148,4.15E+03,0.199,0.107,0
1.02E+03,0.147,0.146,0.137,4.80E+03,0.542,0.408,0
1.15E+03,0.128,0.127,0.118,5.56E+03,0.93,0.817,0
1.28E+03,0.113,0.113,0.102,6.44E+03,0,0,0
1.40E+03,0.101,0.0987,0.0877,7.46E+03,0,0,0
1.53E+03,0.0891,0.0862,0.0765,8.63E+03,0,0,0
1.66E+03,0.0801,0.076,0.0682,,,,
1.79E+03,0.0723,0.0688,0.0608,,,,
1.92E+03,0.0645,0.061,0.0531,,,,
2.04E+03,0.0581,0.0544,0.0465,,,,
2.30E+03,0.0483,0.0436,0.0362,,,,
2.56E+03,0.038,0.0357,0.0306,,,,
2.81E+03,0.0307,0.0288,0.025,,,,
3.07E+03,0.0264,0.0256,0.0217,,,,
3.32E+03,0.0218,0.0222,0.0184,,,,
3.58E+03,0.0189,0.019,0.0136,,,,
3.84E+03,0.0161,0.0168,0.0096,,,,
4.09E+03,0.0128,0.0175,0.00841,,,,
4.60E+03,0.00712,0.0142,0.00644,,,,
5.12E+03,0.0047,0.012,0.00456,,,,
5.63E+03,0.00316,0.00956,0.00411,,,,
6.14E+03,0.00157,0.00773,0.00284,,,,
6.65E+03,0.000938,0.00554,0.00356,,,,
7.16E+03,0.000883,0.00428,0.00352,,,,
7.68E+03,0.00221,0.00506,0.00341,,,,
8.19E+03,0.00239,0.00425,0.00182,,,,
9.21E+03,0.00464,0.00142,0.00113,,,,
1.02E+04,0.00531,0.000313,0.00294,,,,
1.13E+04,0.00487,0.000859,0.00327,,,,
1.23E+04,0.00531,0.000642,0.00154,,,,
1.33E+04,0.00175,0.00105,0.00328,,,,
1.43E+04,0.000559,0.00243,0.0018,,,,
1.54E+04,0.00119,0.00272,0.00073,,,,
1.64E+04,0.0032,0.00377,2.13E-06,,,,
1.84E+04,0.00364,0.000554,0.00174,,,,
2.05E+04,0.000918,0.00109,0.00433,,,,
2.25E+04,0.00144,0.00055,0.0066,,,,
2.46E+04,0.000461,0.0016,0.00412,,,,
2.66E+04,0.00393,0.00199,0.00278,,,,
2.87E+04,0.00255,0.00188,0.000642,,,,
3.07E+04,0.00194,0.00029,0.00267,,,,
3.28E+04,0.00101,0,0.00138,,,,
3.69E+04,0.00323,0.00364,0.00352,,,,
4.10E+04,0.00537,0.004,0.004,,,,
4.51E+04,0.00318,0.00397,0.0014,,,,
4.91E+04,0.00519,0.00203,0.000243,,,,
5.32E+04,0.0028,0.00178,0.000954,,,,
5.73E+04,0.00104,0.000529,0.00196,,,,
6.14E+04,0.00147,0.000308,0.000207,,,,
6.55E+04,0.00525,0.000837,0.00176,,,,
7.37E+04,0.0027,0.00279,0.00186,,,,
8.19E+04,0.00418,0.00257,0.00131,,,,
9.01E+04,0.00438,0.00108,0.00337,,,,
9.83E+04,0.00344,0.000418,0.000142,,,,
1.06E+05,0.00137,0.000738,0.0029,,,,
1.15E+05,0.00176,0.00107,0.00448,,,,
1.23E+05,0.0014,0.0017,0.00108,,,,
1.31E+05,0.00153,0.00217,0.000132,,,,
1.47E+05,0.00299,0.00103,0.00142,,,,
1.64E+05,0.00257,0.000712,0.00174,,,,
1.80E+05,0.00272,0.000682,0.00117,,,,
1.97E+05,0.00164,0.00211,0.00126,,,,
2.13E+05,0.00168,0.000574,5.06E-05,,,,
2.29E+05,0.00128,0.000249,0.00121,,,,
2.46E+05,0.000951,0.000683,0.00127,,,,
2.62E+05,0.00225,0.0006,0.00251,,,,
2.95E+05,0.00139,0.00264,0.00138,,,,
3.28E+05,0.00164,0.00156,0.000464,,,,
3.60E+05,0.00106,0.00075,0,,,,
3.93E+05,0.000162,0.000522,0.000505,,,,
4.26E+05,0.00228,0.000812,0.000859,,,,
4.59E+05,0.00264,0.00043,0.00103,,,,
4.92E+05,0.000989,0.000679,0.000115,,,,
5.24E+05,0.00135,0.000793,0.00134,,,,
5.90E+05,0.00107,0.00215,0.00232,,,,
6.55E+05,0.000667,0.00158,0.00175,,,,
7.21E+05,0.000335,0.000593,0.00108,,,,
7.86E+05,0.00153,0.000791,0.00217,,,,
8.52E+05,0.000277,0.000904,0.00198,,,,
9.18E+05,0.00092,0.000507,0.0015,,,,
9.83E+05,0.00261,0.000909,0.00213,,,,
1.05E+06,0.0015,0.000429,0.00189,,,,
1.18E+06,0.00193,0.00077,0.00104,,,,
1.31E+06,0.00131,0.000956,0.00435,,,,
1.44E+06,0.0022,0.00188,0.00256,,,,
1.57E+06,0.00226,0.00165,0.00307,,,,
1.70E+06,0.00345,0.00332,0.00347,,,,
1.84E+06,0.00427,0.00331,0.000397,,,,
1.97E+06,0.00505,0.000932,0.00274,,,,
2.10E+06,0,0,0,,,,
2.36E+06,0,0,0,,,,
2.62E+06,0,0,0,,,,
2.88E+06,0,0,0,,,,
3.15E+06,0,0,0,,,,
3.41E+06,0,0,0,,,,
3.67E+06,0,0,0,,,,
3.93E+06,0,0,0,,,,
4.19E+06,0,0,0,,,,
4.72E+06,0,0,0,,,,
5.24E+06,0,0,0,,,,
5.77E+06,0,0,0,,,,
6.29E+06,0,0,0,,,,
6.82E+06,0,0,0,,,,
7.34E+06,0,0,0,,,,
7.86E+06,0,0,0,,,,
8.39E+06,0,0,0,,,,
9.44E+06,0,0,0,,,,
1.05E+07,0,0,0,,,,
1.15E+07,0,0,0,,,,
1.26E+07,0,0,0,,,,
1.36E+07,0,0,0,,,,
1.47E+07,0,0,0,,,,
1.57E+07,0,0,0,,,,
1.68E+07,0,0,0,,,,
1.89E+07,0,0,0,,,,
2.10E+07,0,0,0,,,,
2.31E+07,0,0,0,,,,
2.52E+07,0,0,0,,,,
2.73E+07,0,0,0,,,,
2.94E+07,0,0,0,,,,
3.15E+07,0,0,0,,,,
3.36E+07,0,0,0,,,,
3.77E+07,0,0,0,,,,
4.19E+07,0,0,0,,,,
4.61E+07,0,0,0,,,,
5.03E+07,0,0,0,,,,
5.45E+07,0,0,0,,,,
5.87E+07,0,0,0,,,,