X Lag Time,Record 1: JJ1_50mg_200rpm_10-00min_PM_No4_230706 1,Record 2: JJ1_50mg_200rpm_10-00min_PM_No4_230706 2,Record 3: JJ1_50mg_200rpm_10-00min_PM_No4_230706 3,X Intensity,Record 1: JJ1_50mg_200rpm_10-00min_PM_No4_230706 1,Record 2: JJ1_50mg_200rpm_10-00min_PM_No4_230706 2,Record 3: JJ1_50mg_200rpm_10-00min_PM_No4_230706 3
0.5,0.876,0.876,0.875,0.4,0,0,0
1,0.864,0.86,0.864,0.463,0,0,0
1.5,0.852,0.849,0.85,0.536,0,0,0
2,0.841,0.837,0.84,0.621,0,0,0
2.5,0.827,0.827,0.825,0.719,0,0,0
3,0.814,0.813,0.817,0.833,0,0,0
3.5,0.806,0.812,0.8,0.965,0,0,0
4,0.802,0.795,0.795,1.12,0,0,0
4.5,0.789,0.789,0.782,1.29,0,0,0
5.5,0.769,0.77,0.766,1.5,0,0,0
6.5,0.751,0.751,0.743,1.74,0,0,0
7.5,0.732,0.734,0.725,2.01,0,0,0
8.5,0.717,0.717,0.71,2.33,0,0,0
9.5,0.697,0.703,0.691,2.7,0,0,0
10.5,0.679,0.686,0.672,3.12,0,0,0
11.5,0.67,0.672,0.662,3.62,0,0,0
12.5,0.655,0.658,0.646,4.19,0,0,0
14.5,0.625,0.629,0.617,4.85,0,0,0
16.5,0.6,0.605,0.591,5.61,0,0,0
18.5,0.573,0.58,0.563,6.5,0,0,0
20.5,0.551,0.557,0.542,7.53,0,0,0
22.5,0.528,0.538,0.519,8.72,0.316,0.464,0
24.5,0.507,0.517,0.5,10.1,2.95,2.66,2.23
26.5,0.489,0.499,0.479,11.7,7.02,6.16,6.97
28.5,0.471,0.482,0.459,13.5,10.7,9.57,11.8
32.5,0.437,0.448,0.427,15.7,12.3,11.5,14.1
36.5,0.41,0.421,0.397,18.2,11.3,11,12.8
40.5,0.384,0.397,0.37,21,8.25,8.35,8.56
44.5,0.361,0.374,0.347,24.4,4.43,4.65,3.63
48.5,0.34,0.354,0.326,28.2,1.36,1.47,0.43
52.5,0.321,0.336,0.307,32.7,0,0,0
56.5,0.305,0.319,0.291,37.8,0,0,0
60.5,0.29,0.305,0.278,43.8,0,0,0
68.5,0.265,0.279,0.253,50.7,0,0,0
76.5,0.245,0.258,0.231,58.8,0,0,0
84.5,0.227,0.241,0.214,68.1,0,0,0
92.5,0.213,0.226,0.199,78.8,0,0,0
101,0.201,0.213,0.187,91.3,0,0,0
109,0.19,0.203,0.177,106,0,0,0
117,0.182,0.195,0.169,122,0,0,0
125,0.176,0.188,0.162,142,0,0,0
141,0.164,0.176,0.149,164,0,0.0855,0
157,0.156,0.167,0.141,190,0,0.528,0
173,0.148,0.159,0.135,220,0.115,1.23,0
189,0.143,0.155,0.131,255,0.605,1.99,0.223
205,0.137,0.151,0.127,295,1.45,2.61,1.04
221,0.133,0.146,0.123,342,2.5,2.99,2.31
237,0.13,0.143,0.121,396,3.53,3.1,3.67
253,0.127,0.14,0.118,459,4.37,2.98,4.79
285,0.122,0.133,0.113,531,4.87,2.72,5.42
317,0.115,0.128,0.109,615,4.97,2.4,5.46
349,0.111,0.124,0.105,712,4.68,2.09,4.95
381,0.107,0.121,0.101,825,4.07,1.85,4.04
413,0.103,0.117,0.0961,955,3.25,1.71,2.93
445,0.1,0.113,0.0935,1.11E+03,2.36,1.65,1.83
477,0.0972,0.108,0.0905,1.28E+03,1.51,1.67,0.917
509,0.0941,0.104,0.086,1.48E+03,0.815,1.72,0.313
573,0.0873,0.0978,0.0795,1.72E+03,0.333,1.78,0.036
637,0.0815,0.0918,0.075,1.99E+03,0.0763,1.82,0
701,0.0791,0.0862,0.0693,2.30E+03,0,1.81,0
765,0.0743,0.0831,0.0651,2.67E+03,0,1.73,0
829,0.0691,0.0792,0.0622,3.09E+03,0.0559,1.6,0.000433
893,0.0641,0.0746,0.0583,3.58E+03,0.187,1.4,0.0881
957,0.0595,0.0699,0.0561,4.15E+03,0.376,1.17,0.274
1.02E+03,0.0565,0.0672,0.0523,4.80E+03,0.576,0.912,0.515
1.15E+03,0.0511,0.0609,0.0449,5.56E+03,0.732,0.663,0.737
1.28E+03,0.046,0.056,0.0401,6.44E+03,0,0,0
1.40E+03,0.0406,0.0529,0.0351,7.46E+03,0,0,0
1.53E+03,0.0365,0.0507,0.0306,8.63E+03,0,0,0
1.66E+03,0.033,0.0463,0.0302,,,,
1.79E+03,0.0293,0.0424,0.0276,,,,
1.92E+03,0.0258,0.0398,0.0259,,,,
2.04E+03,0.0229,0.0352,0.0243,,,,
2.30E+03,0.0196,0.0307,0.0194,,,,
2.56E+03,0.0157,0.0255,0.0186,,,,
2.81E+03,0.014,0.0231,0.014,,,,
3.07E+03,0.0118,0.0205,0.0121,,,,
3.32E+03,0.00862,0.0188,0.011,,,,
3.58E+03,0.00873,0.0162,0.00879,,,,
3.84E+03,0.00646,0.0145,0.00741,,,,
4.09E+03,0.00497,0.0134,0.00593,,,,
4.60E+03,0.00448,0.0106,0.00493,,,,
5.12E+03,0.00491,0.00915,0.00366,,,,
5.63E+03,0.00573,0.00469,0.00416,,,,
6.14E+03,0.00619,0.00536,0.00487,,,,
6.65E+03,0.00623,0.00714,0.00359,,,,
7.16E+03,0.00402,0.0046,0.00244,,,,
7.68E+03,0.00396,0.00388,0.00197,,,,
8.19E+03,0.0034,0.00381,0.00206,,,,
9.21E+03,0.00384,0.00393,0.00262,,,,
1.02E+04,0.00238,0.00449,0.00211,,,,
1.13E+04,0.0031,0.00335,0.00252,,,,
1.23E+04,0.00214,0.00317,0.00213,,,,
1.33E+04,0.00119,0.00347,0.00183,,,,
1.43E+04,0.00173,0.00394,0.00349,,,,
1.54E+04,0.000867,0.00399,0.00192,,,,
1.64E+04,0.00196,0.00398,0.00128,,,,
1.84E+04,0.0016,0.00273,0.000865,,,,
2.05E+04,0.0011,0.00241,0.00217,,,,
2.25E+04,0.00169,0.00128,0.00216,,,,
2.46E+04,0.00167,0.00218,0.00205,,,,
2.66E+04,0.000823,0.00175,0.00128,,,,
2.87E+04,0.000501,0.00248,0.00185,,,,
3.07E+04,0.00139,0.000985,0.00125,,,,
3.28E+04,0.00113,0.000868,0.00155,,,,
3.69E+04,0.000892,0.00257,0.000967,,,,
4.10E+04,0.00114,0.0051,0.000627,,,,
4.51E+04,0.000601,0.00289,0.00127,,,,
4.91E+04,0.000549,0.00103,0.00137,,,,
5.32E+04,0.00184,0.00181,0.000175,,,,
5.73E+04,0.001,0.00243,0,,,,
6.14E+04,0.000981,0.00284,0,,,,
6.55E+04,0.00168,0.00318,0.000767,,,,
7.37E+04,0.00178,0.00332,0.000705,,,,
8.19E+04,0.00135,0.00324,0.00104,,,,
9.01E+04,0.00084,0.00272,0.00113,,,,
9.83E+04,0.000859,0.00281,2.62E-05,,,,
1.06E+05,0.00118,0.00281,0.000396,,,,
1.15E+05,0.00156,0.00434,0.0011,,,,
1.23E+05,0.00214,0.00202,0.000994,,,,
1.31E+05,0.000281,0.00124,0.000901,,,,
1.47E+05,0.00127,0.00187,0.00178,,,,
1.64E+05,0.000676,0.0025,0.000518,,,,
1.80E+05,0.00104,0.00311,0.00118,,,,
1.97E+05,0.000241,0.000827,0.000208,,,,
2.13E+05,0.00195,0.00133,0.000374,,,,
2.29E+05,0.00047,0.002,4.80E-05,,,,
2.46E+05,0.000138,0.000799,0.000549,,,,
2.62E+05,0.000973,0.00111,0.000449,,,,
2.95E+05,0.000591,0.000617,0.00108,,,,
3.28E+05,0.00102,0.000287,0.00024,,,,
3.60E+05,0.000698,0.00189,0.000932,,,,
3.93E+05,0.00124,0.000361,0.0013,,,,
4.26E+05,0.00113,0.00081,0.000513,,,,
4.59E+05,0.00153,0.00092,0.0009,,,,
4.92E+05,0.000394,0.000956,0.000346,,,,
5.24E+05,0.000668,0.00103,0.00093,,,,
5.90E+05,0.00188,0.000417,0.000775,,,,
6.55E+05,0.00188,0.00114,0.000298,,,,
7.21E+05,0.00184,0.000151,0.000302,,,,
7.86E+05,0.00189,0.000379,0.000364,,,,
8.52E+05,0.00136,0.00126,0.00068,,,,
9.18E+05,0.0011,0.000462,0.000691,,,,
9.83E+05,0.00185,0.00089,0.000495,,,,
1.05E+06,0.000895,0.00234,0.000855,,,,
1.18E+06,0.000831,0.00176,0.00112,,,,
1.31E+06,0.00116,0.000485,0.00112,,,,
1.44E+06,0.00218,0.00222,0.00061,,,,
1.57E+06,0.00215,0.000675,0.000627,,,,
1.70E+06,0.00136,0.0018,0.00164,,,,
1.84E+06,0.00215,0.00145,0.00153,,,,
1.97E+06,0.00184,0.00194,0.00139,,,,
2.10E+06,0,0,0,,,,
2.36E+06,0,0,0,,,,
2.62E+06,0,0,0,,,,
2.88E+06,0,0,0,,,,
3.15E+06,0,0,0,,,,
3.41E+06,0,0,0,,,,
3.67E+06,0,0,0,,,,
3.93E+06,0,0,0,,,,
4.19E+06,0,0,0,,,,
4.72E+06,0,0,0,,,,
5.24E+06,0,0,0,,,,
5.77E+06,0,0,0,,,,
6.29E+06,0,0,0,,,,
6.82E+06,0,0,0,,,,
7.34E+06,0,0,0,,,,
7.86E+06,0,0,0,,,,
8.39E+06,0,0,0,,,,
9.44E+06,0,0,0,,,,
1.05E+07,0,0,0,,,,
1.15E+07,0,0,0,,,,
1.26E+07,0,0,0,,,,
1.36E+07,0,0,0,,,,
1.47E+07,0,0,0,,,,
1.57E+07,0,0,0,,,,
1.68E+07,0,0,0,,,,
1.89E+07,0,0,0,,,,
2.10E+07,0,0,0,,,,
2.31E+07,0,0,0,,,,
2.52E+07,0,0,0,,,,
2.73E+07,0,0,0,,,,
2.94E+07,0,0,0,,,,
3.15E+07,0,0,0,,,,
3.36E+07,0,0,0,,,,
3.77E+07,0,0,0,,,,
4.19E+07,0,0,0,,,,
4.61E+07,0,0,0,,,,
5.03E+07,0,0,0,,,,
5.45E+07,0,0,0,,,,
5.87E+07,0,0,0,,,,