Lag Time [us], Avg. Corr. [-], Std. Dev. Corr. [-]
5.000000000000000000e-01,8.926666666666666083e-01,1.882197297486815774e-02
1.000000000000000000e+00,8.991666666666667806e-01,1.936405604894458204e-02
1.500000000000000000e+00,8.974999999999999645e-01,1.922238278674110248e-02
2.000000000000000000e+00,8.954999999999998517e-01,1.975601174326439488e-02
2.500000000000000000e+00,8.946666666666667211e-01,1.977540560056019123e-02
3.000000000000000000e+00,8.936666666666667203e-01,1.907528942550196921e-02
3.500000000000000000e+00,8.915000000000000702e-01,1.982674960753780941e-02
4.000000000000000000e+00,8.908333333333332549e-01,2.006406406156707387e-02
4.500000000000000000e+00,8.896666666666664947e-01,1.991649232838622538e-02
5.500000000000000000e+00,8.868333333333334734e-01,2.006406406156707387e-02
6.500000000000000000e+00,8.841666666666666563e-01,1.964094362974109706e-02
7.500000000000000000e+00,8.814999999999999503e-01,2.006738647656940849e-02
8.500000000000000000e+00,8.786666666666665959e-01,1.995661962023296751e-02
9.500000000000000000e+00,8.764999999999999458e-01,2.000749859427711219e-02
1.050000000000000000e+01,8.738333333333333508e-01,2.019323319002351916e-02
1.150000000000000000e+01,8.711666666666667558e-01,2.004411800670379343e-02
1.250000000000000000e+01,8.686666666666665870e-01,2.057830572876852282e-02
1.450000000000000000e+01,8.635000000000000453e-01,2.036418424587640302e-02
1.650000000000000000e+01,8.589999999999999858e-01,2.061067684478121859e-02
1.850000000000000000e+01,8.544999999999999263e-01,2.081105475462502463e-02
2.050000000000000000e+01,8.495000000000000329e-01,2.117309613637081631e-02
2.250000000000000000e+01,8.446666666666667878e-01,2.063653717721719572e-02
2.450000000000000000e+01,8.396666666666666723e-01,2.105864826304545620e-02
2.650000000000000000e+01,8.353333333333332611e-01,2.173169727993343528e-02
2.850000000000000000e+01,8.308333333333332016e-01,2.125480337868749722e-02
3.250000000000000000e+01,8.216666666666666563e-01,2.172249218360234463e-02
3.650000000000000000e+01,8.125000000000000000e-01,2.195222084437012736e-02
4.050000000000000000e+01,8.041666666666666963e-01,2.200378755275247608e-02
4.450000000000000000e+01,7.954999999999999849e-01,2.204313952230940385e-02
4.850000000000000000e+01,7.876666666666666261e-01,2.279181139503103429e-02
5.250000000000000000e+01,7.791666666666666741e-01,2.271049683883352710e-02
5.650000000000000000e+01,7.713333333333333153e-01,2.294050275531614447e-02
6.050000000000000000e+01,7.633333333333333082e-01,2.294050275531614447e-02
6.850000000000000000e+01,7.476666666666665906e-01,2.333809475228575125e-02
7.650000000000000000e+01,7.328333333333333366e-01,2.386978564350060450e-02
8.450000000000000000e+01,7.183333333333333792e-01,2.410532444640950400e-02
9.250000000000000000e+01,7.043333333333333668e-01,2.446766573800340100e-02
1.010000000000000000e+02,6.900000000000000577e-01,2.487569094517774748e-02
1.090000000000000000e+02,6.768333333333332869e-01,2.510312065593966677e-02
1.170000000000000000e+02,6.636666666666667380e-01,2.497732304845069751e-02
1.250000000000000000e+02,6.510000000000000231e-01,2.534561105990544225e-02
1.410000000000000000e+02,6.263333333333332975e-01,2.575008090602178695e-02
1.570000000000000000e+02,6.030000000000000915e-01,2.605379051117133124e-02
1.730000000000000000e+02,5.806666666666666643e-01,2.615849129186669300e-02
1.890000000000000000e+02,5.593333333333333490e-01,2.646255215708917183e-02
2.050000000000000000e+02,5.390000000000000346e-01,2.652545946821656744e-02
2.210000000000000000e+02,5.196666666666666101e-01,2.655309147098823194e-02
2.370000000000000000e+02,5.011666666666666492e-01,2.654367470164347570e-02
2.530000000000000000e+02,4.836666666666666337e-01,2.659072520008934348e-02
2.850000000000000000e+02,4.501666666666666594e-01,2.654367470164345488e-02
3.170000000000000000e+02,4.199999999999999845e-01,2.643482551483931561e-02
3.490000000000000000e+02,3.916666666666666630e-01,2.596664527170706310e-02
3.810000000000000000e+02,3.656666666666667509e-01,2.552384506038748654e-02
4.130000000000000000e+02,3.418333333333333779e-01,2.509515225430334825e-02
4.450000000000000000e+02,3.194999999999999507e-01,2.435364449112288956e-02
4.770000000000000000e+02,2.988333333333333397e-01,2.368473488698293397e-02
5.090000000000000000e+02,2.799999999999999711e-01,2.321206582792664092e-02
5.730000000000000000e+02,2.456666666666666721e-01,2.231292599966815463e-02
6.370000000000000000e+02,2.161666666666667014e-01,2.081746062003400621e-02
7.010000000000000000e+02,1.905000000000000027e-01,1.976613265158361915e-02
7.650000000000000000e+02,1.685000000000000109e-01,1.892881401461803462e-02
8.290000000000000000e+02,1.490000000000000213e-01,1.794435844492635670e-02
8.930000000000000000e+02,1.320000000000000062e-01,1.663730747446833316e-02
9.570000000000000000e+02,1.173166666666666663e-01,1.598129114516929836e-02
1.020000000000000000e+03,1.053999999999999937e-01,1.517036584924701288e-02
1.150000000000000000e+03,8.483333333333333004e-02,1.379313839076033547e-02
1.280000000000000000e+03,6.876666666666667038e-02,1.227984799037295377e-02
1.400000000000000000e+03,5.649999999999999467e-02,1.073088999104920491e-02
1.530000000000000000e+03,4.671666666666666329e-02,9.553934617039551436e-03
1.660000000000000000e+03,3.909999999999999587e-02,8.526429498916882066e-03
1.790000000000000000e+03,3.295000000000000012e-02,7.699805192340906761e-03
1.920000000000000000e+03,2.805000000000000202e-02,7.107390519733667450e-03
2.040000000000000000e+03,2.396666666666666390e-02,6.776626496027847273e-03
2.300000000000000000e+03,1.795166666666666785e-02,6.640422928298065144e-03
2.560000000000000000e+03,1.454166666666666628e-02,6.253275674929633862e-03
2.810000000000000000e+03,1.255000000000000039e-02,5.561363142252086569e-03
3.070000000000000000e+03,1.080333333333333319e-02,5.143557782961777000e-03
3.320000000000000000e+03,8.723333333333332940e-03,5.308561638209230091e-03
3.580000000000000000e+03,7.989999999999998839e-03,5.449198106143692509e-03
3.840000000000000000e+03,7.754999999999998873e-03,5.841112051655917257e-03
4.090000000000000000e+03,7.208333333333333953e-03,5.583323084567708150e-03
4.600000000000000000e+03,6.706666666666666332e-03,5.514039051971491440e-03
5.120000000000000000e+03,5.790000000000000008e-03,4.504309048011692455e-03
5.630000000000000000e+03,5.491666666666666398e-03,4.669729828016463621e-03
6.140000000000000000e+03,5.604333333333332695e-03,4.794502754891968345e-03
6.650000000000000000e+03,5.186666666666666682e-03,4.439286729494578213e-03
7.160000000000000000e+03,5.127333333333333569e-03,4.217948632530588680e-03
7.680000000000000000e+03,4.594833333333333582e-03,4.395863984095352804e-03
8.190000000000000000e+03,4.099833333333332934e-03,4.383603103232165676e-03
9.210000000000000000e+03,5.176666666666666222e-03,3.642810270473424272e-03
1.020000000000000000e+04,4.153333333333333530e-03,4.596458056663484983e-03
1.130000000000000000e+04,3.660000000000000059e-03,4.175715507550771359e-03
1.230000000000000000e+04,3.846666666666667071e-03,3.812073801314275374e-03
1.330000000000000000e+04,3.471166666666667105e-03,3.074035030162581769e-03
1.430000000000000000e+04,3.596666666666666849e-03,3.484644410361933519e-03
1.540000000000000000e+04,4.638333333333333718e-03,4.958989480394838945e-03
1.640000000000000000e+04,3.492833333333333467e-03,3.875881547037610814e-03
1.840000000000000000e+04,3.311666666666667185e-03,3.704081082625846830e-03
2.050000000000000000e+04,4.024999999999999932e-03,3.182613705745641116e-03
2.250000000000000000e+04,3.426666666666666403e-03,2.913778760761816505e-03
2.460000000000000000e+04,3.855000000000000353e-03,3.263757037525925019e-03
2.660000000000000000e+04,3.690500000000000638e-03,2.292599725202809895e-03
2.870000000000000000e+04,4.156666666666666149e-03,2.528664996923606946e-03
3.070000000000000000e+04,3.844999999999999894e-03,2.739888683870204174e-03
3.280000000000000000e+04,3.584999999999999645e-03,3.538455877921893415e-03
3.690000000000000000e+04,3.841666666666666407e-03,2.715035297499217726e-03
4.100000000000000000e+04,3.849333333333333513e-03,3.133344964517419205e-03
4.510000000000000000e+04,2.549333333333333573e-03,2.159061524520935679e-03
4.910000000000000000e+04,3.496666666666666586e-03,2.709344324124688275e-03
5.320000000000000000e+04,2.570999999999999935e-03,2.492561333247388794e-03
5.730000000000000000e+04,3.215000000000000410e-03,1.823806459030124323e-03
6.140000000000000000e+04,3.098999999999999758e-03,2.403007698697613628e-03
6.550000000000000000e+04,2.904850000000000054e-03,2.413921882538869537e-03
7.370000000000000000e+04,3.088333333333333989e-03,2.123453947385407076e-03
8.190000000000000000e+04,2.928333333333333569e-03,1.769614835682236167e-03
9.010000000000000000e+04,2.811666666666666741e-03,2.109155439190451512e-03
9.830000000000000000e+04,2.421166666666666519e-03,2.540069165724954860e-03
1.060000000000000000e+05,2.873333333333333642e-03,1.712292809850776525e-03
1.150000000000000000e+05,2.515166666666666852e-03,1.826742501467206207e-03
1.230000000000000000e+05,2.175983333333332981e-03,1.755354665492608272e-03
1.310000000000000000e+05,2.170833333333333209e-03,1.544222835819580040e-03
1.470000000000000000e+05,1.936500000000000070e-03,1.424000526685295989e-03
1.640000000000000000e+05,2.691666666666666860e-03,1.367982699695674889e-03
1.800000000000000000e+05,1.888333333333333227e-03,1.165047924622273495e-03
1.970000000000000000e+05,2.032333333333333041e-03,1.411158625621749966e-03
2.130000000000000000e+05,1.620333333333333218e-03,7.134035790957784237e-04
2.290000000000000000e+05,1.708666666666666493e-03,5.157001712881881814e-04
2.460000000000000000e+05,2.181666666666666823e-03,1.070671129089911973e-03
2.620000000000000000e+05,1.467000000000000205e-03,6.427201568334386505e-04
2.950000000000000000e+05,1.701666666666666649e-03,6.291714127856308557e-04
3.280000000000000000e+05,1.355000000000000085e-03,5.199676913039886399e-04
3.600000000000000000e+05,1.314999999999999980e-03,2.719374928177429760e-04
3.930000000000000000e+05,2.205000000000000362e-03,7.724441727400110490e-04
4.260000000000000000e+05,1.572333333333333352e-03,1.091438256002906721e-03
4.590000000000000000e+05,9.894999999999999282e-04,6.450605397945219409e-04
4.920000000000000000e+05,1.085000000000000027e-03,5.229695975867048111e-04
5.240000000000000000e+05,1.671833333333333331e-03,8.313676483161145086e-04
5.900000000000000000e+05,1.351166666666666532e-03,9.163441311356047966e-04
6.550000000000000000e+05,1.241666666666666743e-03,7.964407489993632211e-04
7.210000000000000000e+05,1.482166666666666572e-03,7.466379086723809108e-04
7.860000000000000000e+05,1.117166666666666698e-03,8.959688424642158183e-04
8.520000000000000000e+05,1.259333333333333442e-03,8.350548884155260462e-04
9.180000000000000000e+05,9.174666666666666691e-04,7.996042187649254288e-04
9.830000000000000000e+05,1.124333333333333521e-03,9.017189510411028871e-04
1.050000000000000000e+06,1.047666666666666581e-03,6.635880248065562266e-04
1.180000000000000000e+06,1.138833333333333494e-03,1.099840245975144699e-03
1.310000000000000000e+06,1.165666666666666631e-03,8.954680712714811882e-04
1.440000000000000000e+06,1.301499999999999923e-03,8.000814333553804558e-04
1.570000000000000000e+06,1.117166666666666698e-03,9.046892099868697685e-04
1.700000000000000000e+06,1.039666666666666820e-03,8.671435098452081680e-04
1.840000000000000000e+06,1.192666666666666745e-03,1.054981263656689988e-03
1.970000000000000000e+06,1.223333333333333434e-03,9.532780636659309286e-04
2.100000000000000000e+06,1.753166666666666762e-03,1.293307452490190766e-03
2.360000000000000000e+06,2.083500000000000282e-03,1.724674549009174536e-03
2.620000000000000000e+06,2.421333333333333063e-03,1.548915319398277025e-03
2.880000000000000000e+06,2.446666666666666868e-03,1.826183634431835512e-03
3.150000000000000000e+06,2.252833333333333684e-03,1.522018451486928338e-03
3.410000000000000000e+06,2.379166666666666582e-03,2.037995134112608082e-03
3.670000000000000000e+06,2.401333333333333011e-03,1.672067781720187017e-03
3.930000000000000000e+06,2.314166666666667063e-03,1.790715657681773640e-03
4.190000000000000000e+06,0.000000000000000000e+00,0.000000000000000000e+00
4.720000000000000000e+06,0.000000000000000000e+00,0.000000000000000000e+00
5.240000000000000000e+06,0.000000000000000000e+00,0.000000000000000000e+00
5.770000000000000000e+06,0.000000000000000000e+00,0.000000000000000000e+00
6.290000000000000000e+06,0.000000000000000000e+00,0.000000000000000000e+00
6.820000000000000000e+06,0.000000000000000000e+00,0.000000000000000000e+00
7.340000000000000000e+06,0.000000000000000000e+00,0.000000000000000000e+00
7.860000000000000000e+06,0.000000000000000000e+00,0.000000000000000000e+00
8.390000000000000000e+06,0.000000000000000000e+00,0.000000000000000000e+00
9.440000000000000000e+06,0.000000000000000000e+00,0.000000000000000000e+00
1.050000000000000000e+07,0.000000000000000000e+00,0.000000000000000000e+00
1.150000000000000000e+07,0.000000000000000000e+00,0.000000000000000000e+00
1.260000000000000000e+07,0.000000000000000000e+00,0.000000000000000000e+00
1.360000000000000000e+07,0.000000000000000000e+00,0.000000000000000000e+00
1.470000000000000000e+07,0.000000000000000000e+00,0.000000000000000000e+00
1.570000000000000000e+07,0.000000000000000000e+00,0.000000000000000000e+00
1.680000000000000000e+07,0.000000000000000000e+00,0.000000000000000000e+00
1.890000000000000000e+07,0.000000000000000000e+00,0.000000000000000000e+00
2.100000000000000000e+07,0.000000000000000000e+00,0.000000000000000000e+00
2.310000000000000000e+07,0.000000000000000000e+00,0.000000000000000000e+00
2.520000000000000000e+07,0.000000000000000000e+00,0.000000000000000000e+00
2.730000000000000000e+07,0.000000000000000000e+00,0.000000000000000000e+00
2.940000000000000000e+07,0.000000000000000000e+00,0.000000000000000000e+00
3.150000000000000000e+07,0.000000000000000000e+00,0.000000000000000000e+00
3.360000000000000000e+07,0.000000000000000000e+00,0.000000000000000000e+00
3.770000000000000000e+07,0.000000000000000000e+00,0.000000000000000000e+00
4.190000000000000000e+07,0.000000000000000000e+00,0.000000000000000000e+00
4.610000000000000000e+07,0.000000000000000000e+00,0.000000000000000000e+00
5.030000000000000000e+07,0.000000000000000000e+00,0.000000000000000000e+00
5.450000000000000000e+07,0.000000000000000000e+00,0.000000000000000000e+00
5.870000000000000000e+07,0.000000000000000000e+00,0.000000000000000000e+00
