Lag Time [us], Avg. Corr. [-], Std. Dev. Corr. [-]
5.000000000000000000e-01,8.673333333333332895e-01,1.847881670093264733e-02
1.000000000000000000e+00,8.736666666666667025e-01,1.798517908353061689e-02
1.500000000000000000e+00,8.718333333333333490e-01,1.809327683606999984e-02
2.000000000000000000e+00,8.699999999999999956e-01,1.857955865998976372e-02
2.500000000000000000e+00,8.688333333333333464e-01,1.838930848799560577e-02
3.000000000000000000e+00,8.675000000000000488e-01,1.800833140521354916e-02
3.500000000000000000e+00,8.659999999999999920e-01,1.787735998406925209e-02
4.000000000000000000e+00,8.650000000000001021e-01,1.775387281693773314e-02
4.500000000000000000e+00,8.639999999999999902e-01,1.757270610919105247e-02
5.500000000000000000e+00,8.618333333333333401e-01,1.767955504719129559e-02
6.500000000000000000e+00,8.589999999999999858e-01,1.721627137332589277e-02
7.500000000000000000e+00,8.564999999999999281e-01,1.700294092208758101e-02
8.500000000000000000e+00,8.541666666666666297e-01,1.710458028326527352e-02
9.500000000000000000e+00,8.519999999999999796e-01,1.650454482862222239e-02
1.050000000000000000e+01,8.491666666666666252e-01,1.633911462309592735e-02
1.150000000000000000e+01,8.473333333333332718e-01,1.589549202342183457e-02
1.250000000000000000e+01,8.445000000000000284e-01,1.573213272255228820e-02
1.450000000000000000e+01,8.403333333333332655e-01,1.553919774848969149e-02
1.650000000000000000e+01,8.355000000000000204e-01,1.544991909363927461e-02
1.850000000000000000e+01,8.305000000000001270e-01,1.476143624448513630e-02
2.050000000000000000e+01,8.259999999999999565e-01,1.428285685708567850e-02
2.250000000000000000e+01,8.219999999999999529e-01,1.395707705789428314e-02
2.450000000000000000e+01,8.175000000000000044e-01,1.391042774324351659e-02
2.650000000000000000e+01,8.130000000000001670e-01,1.326649916142155945e-02
2.850000000000000000e+01,8.088333333333332931e-01,1.282835401236907119e-02
3.250000000000000000e+01,8.003333333333334521e-01,1.230717947649529430e-02
3.650000000000000000e+01,7.919999999999999263e-01,1.179830496300211112e-02
4.050000000000000000e+01,7.838333333333333819e-01,1.121457385131806490e-02
4.450000000000000000e+01,7.759999999999999121e-01,1.058300524425837170e-02
4.850000000000000000e+01,7.681666666666667753e-01,1.045785191455046725e-02
5.250000000000000000e+01,7.604999999999999538e-01,1.009455298663592022e-02
5.650000000000000000e+01,7.528333333333332433e-01,9.410986487434078868e-03
6.050000000000000000e+01,7.451666666666666439e-01,8.953584012375536902e-03
6.850000000000000000e+01,7.306666666666665755e-01,8.571269839800098669e-03
7.650000000000000000e+01,7.163333333333331554e-01,8.334666560017070167e-03
8.450000000000000000e+01,7.023333333333333650e-01,7.966596931354447825e-03
9.250000000000000000e+01,6.891666666666665941e-01,7.574078601827825136e-03
1.010000000000000000e+02,6.760000000000000453e-01,7.720103626247519849e-03
1.090000000000000000e+02,6.634999999999999787e-01,8.167006795638174360e-03
1.170000000000000000e+02,6.510000000000000231e-01,8.390470785361219333e-03
1.250000000000000000e+02,6.390000000000001235e-01,8.694826047713672540e-03
1.410000000000000000e+02,6.161666666666666403e-01,9.703951085339767094e-03
1.570000000000000000e+02,5.943333333333332691e-01,1.072691319376953105e-02
1.730000000000000000e+02,5.733333333333332504e-01,1.219289410544793263e-02
1.890000000000000000e+02,5.533333333333333437e-01,1.338157937863335666e-02
2.050000000000000000e+02,5.346666666666667345e-01,1.471960144387975643e-02
2.210000000000000000e+02,5.166666666666667185e-01,1.600833116432400297e-02
2.370000000000000000e+02,4.991666666666667029e-01,1.691646141090586211e-02
2.530000000000000000e+02,4.830000000000000959e-01,1.802220852171010010e-02
2.850000000000000000e+02,4.523333333333332540e-01,2.043200104411377338e-02
3.170000000000000000e+02,4.241666666666666363e-01,2.256915298957111807e-02
3.490000000000000000e+02,3.981666666666667243e-01,2.458793742196905760e-02
3.810000000000000000e+02,3.741666666666667029e-01,2.641527335968089224e-02
4.130000000000000000e+02,3.521666666666666834e-01,2.783822312337241173e-02
4.450000000000000000e+02,3.318333333333333135e-01,2.962037586977360817e-02
4.770000000000000000e+02,3.128333333333333521e-01,3.088958832141773178e-02
5.090000000000000000e+02,2.956666666666666887e-01,3.171540109578730587e-02
5.730000000000000000e+02,2.641666666666666607e-01,3.372486718530803146e-02
6.370000000000000000e+02,2.371666666666666645e-01,3.545372570924903988e-02
7.010000000000000000e+02,2.138333333333333197e-01,3.686958999862443437e-02
7.650000000000000000e+02,1.933333333333333293e-01,3.739340405294316189e-02
8.290000000000000000e+02,1.756666666666666654e-01,3.829708431025352633e-02
8.930000000000000000e+02,1.601666666666666794e-01,3.878874407178797140e-02
9.570000000000000000e+02,1.459999999999999909e-01,3.972908254666850797e-02
1.020000000000000000e+03,1.341833333333333211e-01,3.951366430320866346e-02
1.150000000000000000e+03,1.140000000000000041e-01,3.917994384886226006e-02
1.280000000000000000e+03,9.830000000000001237e-02,3.844362105733537677e-02
1.400000000000000000e+03,8.521666666666666279e-02,3.768163566867376718e-02
1.530000000000000000e+03,7.438333333333332908e-02,3.671862833313176144e-02
1.660000000000000000e+03,6.541666666666666463e-02,3.528424105272304212e-02
1.790000000000000000e+03,5.801666666666668165e-02,3.408620933261231195e-02
1.920000000000000000e+03,5.206666666666667082e-02,3.258715493360331283e-02
2.040000000000000000e+03,4.755000000000000199e-02,3.124047054703241871e-02
2.300000000000000000e+03,3.991666666666666280e-02,2.930251980063602879e-02
2.560000000000000000e+03,3.414333333333333803e-02,2.721861250443649571e-02
2.810000000000000000e+03,2.974499999999999714e-02,2.518055896917302180e-02
3.070000000000000000e+03,2.688500000000000265e-02,2.373881694609063578e-02
3.320000000000000000e+03,2.519999999999999671e-02,2.196753149536834204e-02
3.580000000000000000e+03,2.305666666666666628e-02,2.109198773626294945e-02
3.840000000000000000e+03,2.102000000000000049e-02,2.041357685463280128e-02
4.090000000000000000e+03,1.975999999999999979e-02,1.981469050982124364e-02
4.600000000000000000e+03,1.822499999999999815e-02,1.866717413000693049e-02
5.120000000000000000e+03,1.799333333333333340e-02,1.809955542732104641e-02
5.630000000000000000e+03,1.794000000000000108e-02,1.791044946393026763e-02
6.140000000000000000e+03,1.734333333333333213e-02,1.704243840143383412e-02
6.650000000000000000e+03,1.636833333333333196e-02,1.579702176572111635e-02
7.160000000000000000e+03,1.621500000000000025e-02,1.539330991047734541e-02
7.680000000000000000e+03,1.626166666666666732e-02,1.554104940686653474e-02
8.190000000000000000e+03,1.654166666666666632e-02,1.512242628240146811e-02
9.210000000000000000e+03,1.656499999999999986e-02,1.505835283156826618e-02
1.020000000000000000e+04,1.603500000000000064e-02,1.441568000477258180e-02
1.130000000000000000e+04,1.604500000000000023e-02,1.360050256424372161e-02
1.230000000000000000e+04,1.596833333333333091e-02,1.225045373309358900e-02
1.330000000000000000e+04,1.502166666666666407e-02,1.164846499186337689e-02
1.430000000000000000e+04,1.483166666666666661e-02,1.122575505998000232e-02
1.540000000000000000e+04,1.493333333333333492e-02,1.359746986268646485e-02
1.640000000000000000e+04,1.329166666666666517e-02,1.269682860665082361e-02
1.840000000000000000e+04,1.297500000000000216e-02,1.263406150056267489e-02
2.050000000000000000e+04,1.308333333333333397e-02,1.173422458736267208e-02
2.250000000000000000e+04,1.336333333333333123e-02,1.360899947338769719e-02
2.460000000000000000e+04,1.373216666666666509e-02,1.391837505482111312e-02
2.660000000000000000e+04,1.248883333333333095e-02,1.336394583072928605e-02
2.870000000000000000e+04,1.321250000000000029e-02,1.348642715844340992e-02
3.070000000000000000e+04,1.341166666666666722e-02,1.321299877645747307e-02
3.280000000000000000e+04,1.302516666666666580e-02,1.338472488199390215e-02
3.690000000000000000e+04,1.329499999999999953e-02,1.336184680349239776e-02
4.100000000000000000e+04,1.268166666666666574e-02,1.213130894284152050e-02
4.510000000000000000e+04,1.108666666666666828e-02,1.223128393369504914e-02
4.910000000000000000e+04,1.161666666666666577e-02,1.137501589742478947e-02
5.320000000000000000e+04,1.130699999999999934e-02,1.156386051455135858e-02
5.730000000000000000e+04,1.242499999999999855e-02,1.196480965164093031e-02
6.140000000000000000e+04,1.086783333333333351e-02,1.205685233245670264e-02
6.550000000000000000e+04,1.121280000000000020e-02,1.259981799233623849e-02
7.370000000000000000e+04,1.121783333333333486e-02,1.149531487896989640e-02
8.190000000000000000e+04,1.050333333333333154e-02,1.034708976798146170e-02
9.010000000000000000e+04,1.037733333333333390e-02,1.076418704160544970e-02
9.830000000000000000e+04,9.630333333333332760e-03,1.039106278812069670e-02
1.060000000000000000e+05,9.763833333333334433e-03,1.008924715559425013e-02
1.150000000000000000e+05,9.595000000000001097e-03,9.309291594960382096e-03
1.230000000000000000e+05,1.005999999999999950e-02,9.925268762104127312e-03
1.310000000000000000e+05,9.237500000000000919e-03,1.029604482799098900e-02
1.470000000000000000e+05,9.297666666666667620e-03,1.032829902097468638e-02
1.640000000000000000e+05,9.051000000000000018e-03,9.929262107528433537e-03
1.800000000000000000e+05,8.256666666666667362e-03,8.121764997010604351e-03
1.970000000000000000e+05,8.190500000000001599e-03,9.131591794424452971e-03
2.130000000000000000e+05,8.243166666666666004e-03,8.157621967624305651e-03
2.290000000000000000e+05,7.756166666666665550e-03,8.079722282768552616e-03
2.460000000000000000e+05,8.835000000000000839e-03,8.064985430860987722e-03
2.620000000000000000e+05,7.571666666666668384e-03,8.017267930328053974e-03
2.950000000000000000e+05,7.053000000000000241e-03,7.578126417525642665e-03
3.280000000000000000e+05,7.165000000000000362e-03,7.183769901660268589e-03
3.600000000000000000e+05,6.725166666666667487e-03,6.826375038530087952e-03
3.930000000000000000e+05,6.126666666666666546e-03,6.300006846557126838e-03
4.260000000000000000e+05,6.095000000000000591e-03,5.469061162576259634e-03
4.590000000000000000e+05,6.163833333333333664e-03,5.600587841170484582e-03
4.920000000000000000e+05,5.876499999999999779e-03,5.218282313175476306e-03
5.240000000000000000e+05,6.318333333333332920e-03,5.046081317880903028e-03
5.900000000000000000e+05,5.941000000000000968e-03,5.328755014072236555e-03
6.550000000000000000e+05,5.991666666666666842e-03,5.902414477708818608e-03
7.210000000000000000e+05,5.718333333333333081e-03,5.590754570419511835e-03
7.860000000000000000e+05,4.918500000000000129e-03,4.877708222105951383e-03
8.520000000000000000e+05,5.045833333333333594e-03,5.433635851496369101e-03
9.180000000000000000e+05,5.330999999999999801e-03,5.077756000439563426e-03
9.830000000000000000e+05,5.236666666666666380e-03,4.902483724263311665e-03
1.050000000000000000e+06,4.394499999999999969e-03,4.245859806917792398e-03
1.180000000000000000e+06,3.673500000000000116e-03,2.777119640922947295e-03
1.310000000000000000e+06,3.284499999999999659e-03,3.102477832314036021e-03
1.440000000000000000e+06,2.740666666666666858e-03,2.238928910587977255e-03
1.570000000000000000e+06,2.548166666666666462e-03,2.198349054783308582e-03
1.700000000000000000e+06,2.759666666666666778e-03,2.049009679495601352e-03
1.840000000000000000e+06,2.713166666666666244e-03,1.923643461420714192e-03
1.970000000000000000e+06,2.352999999999999623e-03,1.758658011098235144e-03
2.100000000000000000e+06,3.633166666666666923e-03,3.527333293958294022e-03
2.360000000000000000e+06,3.711166666666666433e-03,3.307847059140834201e-03
2.620000000000000000e+06,3.556666666666666310e-03,2.969832767457902725e-03
2.880000000000000000e+06,3.273333333333332956e-03,3.129140371838033761e-03
3.150000000000000000e+06,4.074333333333332585e-03,3.656681646885146311e-03
3.410000000000000000e+06,3.733333333333333295e-03,3.641144966444849734e-03
3.670000000000000000e+06,3.063333333333333273e-03,3.122167174682782039e-03
3.930000000000000000e+06,3.081999999999999670e-03,2.685729696004421178e-03
4.190000000000000000e+06,0.000000000000000000e+00,0.000000000000000000e+00
4.720000000000000000e+06,0.000000000000000000e+00,0.000000000000000000e+00
5.240000000000000000e+06,0.000000000000000000e+00,0.000000000000000000e+00
5.770000000000000000e+06,0.000000000000000000e+00,0.000000000000000000e+00
6.290000000000000000e+06,0.000000000000000000e+00,0.000000000000000000e+00
6.820000000000000000e+06,0.000000000000000000e+00,0.000000000000000000e+00
7.340000000000000000e+06,0.000000000000000000e+00,0.000000000000000000e+00
7.860000000000000000e+06,0.000000000000000000e+00,0.000000000000000000e+00
8.390000000000000000e+06,0.000000000000000000e+00,0.000000000000000000e+00
9.440000000000000000e+06,0.000000000000000000e+00,0.000000000000000000e+00
1.050000000000000000e+07,0.000000000000000000e+00,0.000000000000000000e+00
1.150000000000000000e+07,0.000000000000000000e+00,0.000000000000000000e+00
1.260000000000000000e+07,0.000000000000000000e+00,0.000000000000000000e+00
1.360000000000000000e+07,0.000000000000000000e+00,0.000000000000000000e+00
1.470000000000000000e+07,0.000000000000000000e+00,0.000000000000000000e+00
1.570000000000000000e+07,0.000000000000000000e+00,0.000000000000000000e+00
1.680000000000000000e+07,0.000000000000000000e+00,0.000000000000000000e+00
1.890000000000000000e+07,0.000000000000000000e+00,0.000000000000000000e+00
2.100000000000000000e+07,0.000000000000000000e+00,0.000000000000000000e+00
2.310000000000000000e+07,0.000000000000000000e+00,0.000000000000000000e+00
2.520000000000000000e+07,0.000000000000000000e+00,0.000000000000000000e+00
2.730000000000000000e+07,0.000000000000000000e+00,0.000000000000000000e+00
2.940000000000000000e+07,0.000000000000000000e+00,0.000000000000000000e+00
3.150000000000000000e+07,0.000000000000000000e+00,0.000000000000000000e+00
3.360000000000000000e+07,0.000000000000000000e+00,0.000000000000000000e+00
3.770000000000000000e+07,0.000000000000000000e+00,0.000000000000000000e+00
4.190000000000000000e+07,0.000000000000000000e+00,0.000000000000000000e+00
4.610000000000000000e+07,0.000000000000000000e+00,0.000000000000000000e+00
5.030000000000000000e+07,0.000000000000000000e+00,0.000000000000000000e+00
5.450000000000000000e+07,0.000000000000000000e+00,0.000000000000000000e+00
5.870000000000000000e+07,0.000000000000000000e+00,0.000000000000000000e+00
