Lag Time [us], Avg. Corr. [-], Std. Dev. Corr. [-]
5.000000000000000000e-01,8.523333333333332762e-01,2.886751345948131587e-03
1.000000000000000000e+00,8.566666666666667984e-01,2.516611478423585232e-03
1.500000000000000000e+00,8.516666666666665719e-01,2.309401076758505356e-03
2.000000000000000000e+00,8.476666666666666794e-01,2.309401076758505356e-03
2.500000000000000000e+00,8.439999999999999725e-01,3.605551275463992570e-03
3.000000000000000000e+00,8.403333333333332655e-01,2.081665999466134759e-03
3.500000000000000000e+00,8.363333333333332620e-01,2.081665999466134759e-03
4.000000000000000000e+00,8.330000000000000737e-01,1.732050807568878692e-03
4.500000000000000000e+00,8.293333333333333668e-01,2.081665999466134325e-03
5.500000000000000000e+00,8.223333333333332495e-01,2.081665999466134759e-03
6.500000000000000000e+00,8.159999999999998366e-01,1.732050807568878692e-03
7.500000000000000000e+00,8.096666666666667567e-01,1.527525231651947904e-03
8.500000000000000000e+00,8.026666666666666394e-01,1.527525231651948121e-03
9.500000000000000000e+00,7.966666666666667451e-01,1.527525231651947904e-03
1.050000000000000000e+01,7.903333333333333321e-01,2.081665999466134759e-03
1.150000000000000000e+01,7.846666666666667345e-01,1.527525231651947904e-03
1.250000000000000000e+01,7.786666666666666181e-01,5.773502691896263391e-04
1.450000000000000000e+01,7.673333333333333117e-01,1.527525231651947904e-03
1.650000000000000000e+01,7.563333333333334130e-01,5.773502691896263391e-04
1.850000000000000000e+01,7.463333333333332931e-01,5.773502691896263391e-04
2.050000000000000000e+01,7.366666666666666918e-01,5.773502691896263391e-04
2.250000000000000000e+01,7.273333333333332762e-01,5.773502691896263391e-04
2.450000000000000000e+01,7.186666666666665648e-01,5.773502691896263391e-04
2.650000000000000000e+01,7.099999999999999645e-01,0.000000000000000000e+00
2.850000000000000000e+01,7.016666666666666607e-01,5.773502691896263391e-04
3.250000000000000000e+01,6.860000000000000542e-01,1.000000000000000888e-03
3.650000000000000000e+01,6.713333333333334485e-01,5.773502691896263391e-04
4.050000000000000000e+01,6.576666666666667327e-01,1.154700538379252678e-03
4.450000000000000000e+01,6.446666666666667211e-01,1.154700538379252678e-03
4.850000000000000000e+01,6.323333333333333028e-01,1.527525231651947904e-03
5.250000000000000000e+01,6.213333333333332931e-01,1.527525231651947904e-03
5.650000000000000000e+01,6.096666666666666901e-01,2.081665999466134325e-03
6.050000000000000000e+01,5.996666666666666812e-01,2.081665999466134325e-03
6.850000000000000000e+01,5.796666666666666634e-01,2.081665999466134325e-03
7.650000000000000000e+01,5.610000000000000542e-01,2.645751311064530042e-03
8.450000000000000000e+01,5.436666666666666314e-01,2.081665999466134759e-03
9.250000000000000000e+01,5.276666666666666172e-01,2.081665999466134759e-03
1.010000000000000000e+02,5.126666666666667149e-01,2.081665999466134325e-03
1.090000000000000000e+02,4.979999999999999982e-01,2.645751311064592926e-03
1.170000000000000000e+02,4.839999999999999858e-01,2.645751311064592926e-03
1.250000000000000000e+02,4.713333333333333264e-01,3.214550253664321365e-03
1.410000000000000000e+02,4.463333333333333042e-01,3.214550253664321365e-03
1.570000000000000000e+02,4.239999999999999880e-01,3.464101615137758251e-03
1.730000000000000000e+02,4.026666666666667282e-01,3.785938897200153992e-03
1.890000000000000000e+02,3.836666666666666559e-01,3.785938897200185650e-03
2.050000000000000000e+02,3.646666666666666390e-01,3.785938897200185650e-03
2.210000000000000000e+02,3.476666666666666239e-01,3.785938897200185650e-03
2.370000000000000000e+02,3.316666666666667207e-01,3.785938897200185650e-03
2.530000000000000000e+02,3.163333333333333552e-01,4.041451884327383615e-03
2.850000000000000000e+02,2.889999999999999791e-01,4.358898943540677820e-03
3.170000000000000000e+02,2.640000000000000124e-01,4.358898943540677820e-03
3.490000000000000000e+02,2.409999999999999920e-01,4.358898943540677820e-03
3.810000000000000000e+02,2.210000000000000020e-01,4.358898943540677820e-03
4.130000000000000000e+02,2.036666666666666625e-01,4.618802153516994233e-03
4.450000000000000000e+02,1.866666666666666752e-01,4.618802153517009845e-03
4.770000000000000000e+02,1.723333333333333384e-01,4.932882862316236190e-03
5.090000000000000000e+02,1.590000000000000024e-01,4.358898943540677820e-03
5.730000000000000000e+02,1.353333333333333333e-01,4.163331998932269518e-03
6.370000000000000000e+02,1.159999999999999920e-01,3.605551275463984764e-03
7.010000000000000000e+02,9.969999999999999696e-02,3.119294792096442576e-03
7.650000000000000000e+02,8.566666666666666874e-02,2.709858544893688215e-03
8.290000000000000000e+02,7.413333333333332886e-02,2.159475244899401649e-03
8.930000000000000000e+02,6.436666666666666925e-02,1.616580753730956178e-03
9.570000000000000000e+02,5.593333333333333490e-02,1.761628034896506366e-03
1.020000000000000000e+03,4.880000000000000310e-02,1.509966887054151443e-03
1.150000000000000000e+03,3.746666666666666895e-02,1.069267662156361256e-03
1.280000000000000000e+03,2.949999999999999845e-02,8.544003745317532185e-04
1.400000000000000000e+03,2.386666666666666450e-02,5.686240703077331555e-04
1.530000000000000000e+03,1.919999999999999832e-02,5.291502622129188455e-04
1.660000000000000000e+03,1.556666666666666615e-02,8.736894948054099459e-04
1.790000000000000000e+03,1.283333333333333375e-02,1.096965511460289361e-03
1.920000000000000000e+03,1.136666666666666554e-02,1.184623709594457295e-03
2.040000000000000000e+03,1.061333333333333399e-02,1.470555450614948259e-03
2.300000000000000000e+03,8.880000000000000740e-03,2.459512146747805817e-03
2.560000000000000000e+03,7.099999999999999541e-03,2.974743686437538934e-03
2.810000000000000000e+03,6.883333333333334185e-03,4.120004045305457330e-03
3.070000000000000000e+03,6.409999999999999899e-03,4.514786816672521942e-03
3.320000000000000000e+03,5.769999999999999955e-03,4.142619943948515869e-03
3.580000000000000000e+03,5.666666666666667074e-03,3.710004492360263056e-03
3.840000000000000000e+03,5.343333333333332748e-03,3.589907148288564408e-03
4.090000000000000000e+03,4.723333333333333724e-03,2.777054794802100157e-03
4.600000000000000000e+03,4.216666666666666306e-03,2.500326645327232821e-03
5.120000000000000000e+03,4.230000000000000253e-03,2.535133132598759841e-03
5.630000000000000000e+03,3.810000000000000452e-03,2.115868615958940019e-03
6.140000000000000000e+03,4.109999999999999938e-03,2.553056991138270577e-03
6.650000000000000000e+03,3.873333333333332795e-03,2.539730956879750375e-03
7.160000000000000000e+03,3.480000000000000020e-03,2.098356499739737011e-03
7.680000000000000000e+03,3.416666666666666376e-03,2.122270796419093320e-03
8.190000000000000000e+03,3.959999999999999978e-03,1.974943037153223911e-03
9.210000000000000000e+03,4.100000000000000346e-03,2.598903614988443481e-03
1.020000000000000000e+04,3.799999999999999992e-03,1.693369422187610083e-03
1.130000000000000000e+04,3.533333333333333205e-03,8.643109008530051179e-04
1.230000000000000000e+04,2.953333333333333418e-03,2.706165799305973040e-04
1.330000000000000000e+04,2.576666666666666342e-03,4.921720566360237008e-04
1.430000000000000000e+04,2.733333333333333708e-03,1.725118353427768049e-03
1.540000000000000000e+04,3.886666666666666742e-03,1.436047817216868586e-03
1.640000000000000000e+04,3.303333333333333469e-03,1.861755444018717938e-03
1.840000000000000000e+04,1.959999999999999937e-03,7.988116173416609381e-04
2.050000000000000000e+04,1.923333333333333535e-03,5.784750066626331800e-04
2.250000000000000000e+04,2.660000000000000472e-03,1.060565886685028211e-03
2.460000000000000000e+04,2.916666666666666800e-03,1.297703099069017841e-03
2.660000000000000000e+04,2.746666666666666787e-03,6.577486855428397181e-04
2.870000000000000000e+04,2.729999999999999788e-03,4.708502946797420673e-04
3.070000000000000000e+04,3.253333333333333771e-03,1.064064534383762266e-03
3.280000000000000000e+04,3.546666666666666717e-03,7.869138029881882906e-04
3.690000000000000000e+04,2.956666666666666905e-03,9.420368004135152434e-04
4.100000000000000000e+04,2.306666666666666501e-03,1.680277754817141448e-04
4.510000000000000000e+04,1.926666666666666805e-03,1.118496013999751952e-03
4.910000000000000000e+04,2.686666666666667064e-03,7.617304860207009662e-04
5.320000000000000000e+04,2.776666666666666866e-03,2.779088579612626320e-04
5.730000000000000000e+04,2.563333333333333696e-03,3.300505011863083559e-04
6.140000000000000000e+04,2.269999999999999882e-03,5.602677931132575041e-04
6.550000000000000000e+04,2.189999999999999673e-03,2.535744466621193548e-04
7.370000000000000000e+04,1.810333333333333282e-03,1.388312044654706852e-03
8.190000000000000000e+04,2.209999999999999725e-03,6.802205524680947531e-04
9.010000000000000000e+04,1.313666666666666758e-03,9.117238251429724211e-04
9.830000000000000000e+04,1.810000000000000194e-03,9.814784765851975595e-04
1.060000000000000000e+05,1.268000000000000030e-03,8.512414463593745689e-04
1.150000000000000000e+05,1.815333333333333079e-03,9.731522662632673170e-04
1.230000000000000000e+05,1.873333333333333404e-03,4.834597535817571025e-04
1.310000000000000000e+05,1.910000000000000022e-03,7.318469785412794453e-04
1.470000000000000000e+05,1.796666666666666681e-03,3.971565602295060323e-04
1.640000000000000000e+05,1.163333333333333277e-03,1.446835627614047207e-04
1.800000000000000000e+05,1.143333333333333224e-03,4.517004907384242641e-04
1.970000000000000000e+05,1.141333333333333392e-03,9.214799690353194395e-04
2.130000000000000000e+05,1.598333333333333550e-03,9.707514271600806936e-04
2.290000000000000000e+05,1.059999999999999961e-03,1.452583904633394474e-04
2.460000000000000000e+05,1.052333333333333289e-03,5.819934134793393592e-04
2.620000000000000000e+05,9.883333333333332513e-04,5.855376446765257195e-04
2.950000000000000000e+05,5.616666666666665858e-04,7.284458341794077148e-05
3.280000000000000000e+05,8.281666666666666126e-04,7.419488414529220753e-04
3.600000000000000000e+05,1.002666666666666680e-03,2.864984002282269641e-04
3.930000000000000000e+05,7.006666666666666035e-04,4.450003745316775646e-04
4.260000000000000000e+05,1.025466666666666584e-03,8.659570736089251515e-04
4.590000000000000000e+05,1.002666666666666680e-03,5.671872118915704001e-04
4.920000000000000000e+05,9.413333333333334099e-04,7.363703778217408789e-04
5.240000000000000000e+05,1.187666666666666732e-03,8.510701107037735086e-04
5.900000000000000000e+05,1.297999999999999892e-03,9.598083141961210891e-04
6.550000000000000000e+05,1.018999999999999941e-03,6.935149601847101714e-04
7.210000000000000000e+05,1.084666666666666722e-03,8.136248111588862504e-04
7.860000000000000000e+05,1.243333333333333270e-03,7.460786374996493777e-04
8.520000000000000000e+05,1.288999999999999998e-03,8.203797900972451028e-04
9.180000000000000000e+05,1.086666666666666553e-03,5.226895190582392164e-04
9.830000000000000000e+05,1.423000000000000003e-03,7.165591392202042345e-04
1.050000000000000000e+06,1.508333333333333531e-03,1.175503438248197332e-03
1.180000000000000000e+06,1.370666666666666518e-03,1.108195079096335571e-03
1.310000000000000000e+06,1.552333333333333299e-03,9.929080185663388160e-04
1.440000000000000000e+06,1.640666666666666792e-03,1.132360955408359855e-03
1.570000000000000000e+06,1.698000000000000074e-03,1.452236895275698606e-03
1.700000000000000000e+06,1.626333333333333147e-03,1.179809447891197851e-03
1.840000000000000000e+06,1.717333333333333515e-03,1.780624703112178254e-03
1.970000000000000000e+06,1.760000000000000063e-03,1.733464738608778187e-03
2.100000000000000000e+06,1.710333333333333454e-03,8.571524562954558691e-04
2.360000000000000000e+06,2.269999999999999882e-03,6.939740629158989245e-04
2.620000000000000000e+06,2.019999999999999660e-03,1.215277746031745562e-03
2.880000000000000000e+06,2.356666666666666632e-03,9.968115836673115387e-04
3.150000000000000000e+06,2.140333333333333064e-03,2.002014069214633034e-03
3.410000000000000000e+06,2.583333333333333315e-03,1.168003995426956498e-03
3.670000000000000000e+06,2.660000000000000472e-03,1.169658069693874005e-03
3.930000000000000000e+06,2.005333333333333360e-03,1.622986547489945613e-03
4.190000000000000000e+06,0.000000000000000000e+00,0.000000000000000000e+00
4.720000000000000000e+06,0.000000000000000000e+00,0.000000000000000000e+00
5.240000000000000000e+06,0.000000000000000000e+00,0.000000000000000000e+00
5.770000000000000000e+06,0.000000000000000000e+00,0.000000000000000000e+00
6.290000000000000000e+06,0.000000000000000000e+00,0.000000000000000000e+00
6.820000000000000000e+06,0.000000000000000000e+00,0.000000000000000000e+00
7.340000000000000000e+06,0.000000000000000000e+00,0.000000000000000000e+00
7.860000000000000000e+06,0.000000000000000000e+00,0.000000000000000000e+00
8.390000000000000000e+06,0.000000000000000000e+00,0.000000000000000000e+00
9.440000000000000000e+06,0.000000000000000000e+00,0.000000000000000000e+00
1.050000000000000000e+07,0.000000000000000000e+00,0.000000000000000000e+00
1.150000000000000000e+07,0.000000000000000000e+00,0.000000000000000000e+00
1.260000000000000000e+07,0.000000000000000000e+00,0.000000000000000000e+00
1.360000000000000000e+07,0.000000000000000000e+00,0.000000000000000000e+00
1.470000000000000000e+07,0.000000000000000000e+00,0.000000000000000000e+00
1.570000000000000000e+07,0.000000000000000000e+00,0.000000000000000000e+00
1.680000000000000000e+07,0.000000000000000000e+00,0.000000000000000000e+00
1.890000000000000000e+07,0.000000000000000000e+00,0.000000000000000000e+00
2.100000000000000000e+07,0.000000000000000000e+00,0.000000000000000000e+00
2.310000000000000000e+07,0.000000000000000000e+00,0.000000000000000000e+00
2.520000000000000000e+07,0.000000000000000000e+00,0.000000000000000000e+00
2.730000000000000000e+07,0.000000000000000000e+00,0.000000000000000000e+00
2.940000000000000000e+07,0.000000000000000000e+00,0.000000000000000000e+00
3.150000000000000000e+07,0.000000000000000000e+00,0.000000000000000000e+00
3.360000000000000000e+07,0.000000000000000000e+00,0.000000000000000000e+00
3.770000000000000000e+07,0.000000000000000000e+00,0.000000000000000000e+00
4.190000000000000000e+07,0.000000000000000000e+00,0.000000000000000000e+00
4.610000000000000000e+07,0.000000000000000000e+00,0.000000000000000000e+00
5.030000000000000000e+07,0.000000000000000000e+00,0.000000000000000000e+00
5.450000000000000000e+07,0.000000000000000000e+00,0.000000000000000000e+00
5.870000000000000000e+07,0.000000000000000000e+00,0.000000000000000000e+00
