Lag Time [us], Avg. Corr. [-], Std. Dev. Corr. [-]
5.000000000000000000e-01,8.316666666666666652e-01,1.418919776919518733e-02
1.000000000000000000e+00,8.223333333333333606e-01,1.429452109492767610e-02
1.500000000000000000e+00,8.033333333333333437e-01,1.167618659209127864e-02
2.000000000000000000e+00,7.873333333333333295e-01,1.167618659209133936e-02
2.500000000000000000e+00,7.720000000000001306e-01,1.081665382639197641e-02
3.000000000000000000e+00,7.556666666666665977e-01,9.291573243177577920e-03
3.500000000000000000e+00,7.409999999999999920e-01,8.888194417315595577e-03
4.000000000000000000e+00,7.269999999999999796e-01,9.539392014169464917e-03
4.500000000000000000e+00,7.129999999999999671e-01,9.643650760992963228e-03
5.500000000000000000e+00,6.856666666666666465e-01,8.962886439832444541e-03
6.500000000000000000e+00,6.583333333333333259e-01,8.386497083606090502e-03
7.500000000000000000e+00,6.343333333333333046e-01,6.806859285554051932e-03
8.500000000000000000e+00,6.123333333333333961e-01,6.658328118479398851e-03
9.500000000000000000e+00,5.896666666666666723e-01,5.507570547286106885e-03
1.050000000000000000e+01,5.689999999999999503e-01,5.000000000000004441e-03
1.150000000000000000e+01,5.490000000000000435e-01,5.291502622129185852e-03
1.250000000000000000e+01,5.293333333333333224e-01,4.618802153517010713e-03
1.450000000000000000e+01,4.949999999999999400e-01,5.196152422706636076e-03
1.650000000000000000e+01,4.633333333333333748e-01,5.507570547286106885e-03
1.850000000000000000e+01,4.349999999999999978e-01,6.244997998398403409e-03
2.050000000000000000e+01,4.083333333333333814e-01,6.027713773341683741e-03
2.250000000000000000e+01,3.843333333333333601e-01,6.506407098647717241e-03
2.450000000000000000e+01,3.623333333333333406e-01,7.023769168568499456e-03
2.650000000000000000e+01,3.420000000000000262e-01,7.549834435270726639e-03
2.850000000000000000e+01,3.243333333333333623e-01,8.082903768654767229e-03
3.250000000000000000e+01,2.926666666666666305e-01,8.326663997864539035e-03
3.650000000000000000e+01,2.653333333333333655e-01,8.504900548115390882e-03
4.050000000000000000e+01,2.419999999999999929e-01,8.717797887081355640e-03
4.450000000000000000e+01,2.223333333333333550e-01,9.291573243177577920e-03
4.850000000000000000e+01,2.046666666666666912e-01,9.865765724632487993e-03
5.250000000000000000e+01,1.900000000000000300e-01,9.539392014169464917e-03
5.650000000000000000e+01,1.776666666666666672e-01,9.865765724632493197e-03
6.050000000000000000e+01,1.666666666666666574e-01,9.865765724632487993e-03
6.850000000000000000e+01,1.476666666666666405e-01,8.962886439832508725e-03
7.650000000000000000e+01,1.336666666666666836e-01,8.962886439832493113e-03
8.450000000000000000e+01,1.216666666666666591e-01,8.144527815247080277e-03
9.250000000000000000e+01,1.119999999999999885e-01,8.717797887081346966e-03
1.010000000000000000e+02,1.038333333333333330e-01,7.973915809270456026e-03
1.090000000000000000e+02,9.686666666666665648e-02,7.950052410728705374e-03
1.170000000000000000e+02,9.073333333333333250e-02,7.245918391296807953e-03
1.250000000000000000e+02,8.583333333333333093e-02,7.419119444606163578e-03
1.410000000000000000e+02,7.693333333333333968e-02,6.913995468130807592e-03
1.570000000000000000e+02,6.983333333333331672e-02,6.562265868839308944e-03
1.730000000000000000e+02,6.400000000000000133e-02,6.499999999999997967e-03
1.890000000000000000e+02,5.919999999999999568e-02,5.747173218200402577e-03
2.050000000000000000e+02,5.526666666666666533e-02,5.598511706992611615e-03
2.210000000000000000e+02,5.210000000000000048e-02,5.467174773134659584e-03
2.370000000000000000e+02,4.916666666666667102e-02,5.315386470740705166e-03
2.530000000000000000e+02,4.623333333333332767e-02,5.254839039716948344e-03
2.850000000000000000e+02,4.106666666666666798e-02,5.426171148547872386e-03
3.170000000000000000e+02,3.683333333333333598e-02,5.014312847572767982e-03
3.490000000000000000e+02,3.313333333333332714e-02,4.821134029803913167e-03
3.810000000000000000e+02,2.986666666666666983e-02,4.301550108197429653e-03
4.130000000000000000e+02,2.720000000000000195e-02,3.905124837953326353e-03
4.450000000000000000e+02,2.490000000000000199e-02,3.968626966596885269e-03
4.770000000000000000e+02,2.296666666666666301e-02,3.194265695482034761e-03
5.090000000000000000e+02,2.046666666666666426e-02,3.156474826976026112e-03
5.730000000000000000e+02,1.679999999999999896e-02,3.119294792096444745e-03
6.370000000000000000e+02,1.419999999999999908e-02,2.858321185591291072e-03
7.010000000000000000e+02,1.260000000000000009e-02,2.553429066960741494e-03
7.650000000000000000e+02,1.093333333333333483e-02,2.413489866010076149e-03
8.290000000000000000e+02,9.006666666666666293e-03,1.742880757060944787e-03
8.930000000000000000e+02,7.886666666666666825e-03,2.303699922588298924e-03
9.570000000000000000e+02,7.073333333333334250e-03,2.340733503270573876e-03
1.020000000000000000e+03,5.930000000000000375e-03,1.046135746449761497e-03
1.150000000000000000e+03,4.676666666666666645e-03,1.067067632970531994e-03
1.280000000000000000e+03,3.329999999999999627e-03,1.347330694373137213e-03
1.400000000000000000e+03,3.239999999999999825e-03,7.686351540230256050e-04
1.530000000000000000e+03,2.953333333333333418e-03,5.736142722538667632e-04
1.660000000000000000e+03,2.223333333333333672e-03,7.700865752195225258e-04
1.790000000000000000e+03,1.846666666666666595e-03,5.902824182824127457e-04
1.920000000000000000e+03,1.165000000000000020e-03,2.582150266735071058e-04
2.040000000000000000e+03,1.026000000000000002e-03,9.042123644365848277e-05
2.300000000000000000e+03,9.133333333333333798e-04,3.336290355070033707e-04
2.560000000000000000e+03,8.640000000000000761e-04,3.775923728043244654e-04
2.810000000000000000e+03,8.890000000000000333e-04,5.218400137973323947e-04
3.070000000000000000e+03,8.829999999999999958e-04,3.279130982440317684e-04
3.320000000000000000e+03,6.418333333333333399e-04,5.530416650970643297e-04
3.580000000000000000e+03,8.026666666666668060e-04,3.094662070943018256e-04
3.840000000000000000e+03,1.016333333333333281e-03,2.669088483608839839e-04
4.090000000000000000e+03,9.529999999999998542e-04,1.683062684512967935e-04
4.600000000000000000e+03,8.816666666666667746e-04,5.171153965347902040e-04
5.120000000000000000e+03,8.556666666666665763e-04,2.650855207915614334e-04
5.630000000000000000e+03,9.463333333333333146e-04,4.442975729545833191e-04
6.140000000000000000e+03,7.460000000000000268e-04,1.770960191534524377e-04
6.650000000000000000e+03,1.016999999999999892e-03,9.941327879111518519e-05
7.160000000000000000e+03,8.223333333333333363e-04,5.089639803889204088e-04
7.680000000000000000e+03,8.839999999999999117e-04,5.810645403051196067e-04
8.190000000000000000e+03,6.639999999999999852e-04,5.415422421196706667e-04
9.210000000000000000e+03,9.463333333333333146e-04,2.738253701418722321e-04
1.020000000000000000e+04,7.816666666666666208e-04,1.336575225467438017e-04
1.130000000000000000e+04,5.326666666666666399e-04,2.107138660205666873e-04
1.230000000000000000e+04,8.130000000000000291e-04,3.784930646656554085e-04
1.330000000000000000e+04,5.976666666666665935e-04,2.920348152760786245e-04
1.430000000000000000e+04,7.006666666666667119e-04,4.719336111502689651e-04
1.540000000000000000e+04,8.760000000000000425e-04,6.679011902968882064e-04
1.640000000000000000e+04,8.116666666666668079e-04,6.076663009689885339e-04
1.840000000000000000e+04,4.586999999999999823e-04,3.775796207424335946e-04
2.050000000000000000e+04,6.879999999999999180e-04,2.088707734461669465e-04
2.250000000000000000e+04,8.296666666666665949e-04,1.283757505658032652e-04
2.460000000000000000e+04,9.206666666666667468e-04,5.914400504982169791e-04
2.660000000000000000e+04,7.383333333333333545e-04,1.932364699877674316e-04
2.870000000000000000e+04,9.423333333333333258e-04,5.023408537371147403e-04
3.070000000000000000e+04,6.023333333333333013e-04,3.955708954578601331e-04
3.280000000000000000e+04,4.173333333333333582e-04,2.216671679192327624e-04
3.690000000000000000e+04,5.083333333333332933e-04,3.446626369848251035e-04
4.100000000000000000e+04,8.396666666666666211e-04,1.606123698017476818e-04
4.510000000000000000e+04,5.940000000000000184e-04,2.165017320946878432e-04
4.910000000000000000e+04,5.783333333333333685e-04,2.330157362354168065e-04
5.320000000000000000e+04,6.306666666666666367e-04,2.600314083593236554e-04
5.730000000000000000e+04,7.023333333333333468e-04,2.658464469074832718e-04
6.140000000000000000e+04,5.933333333333334078e-04,2.754747417338535898e-04
6.550000000000000000e+04,6.226666666666666591e-04,4.163488120954992244e-04
7.370000000000000000e+04,6.389999999999999196e-04,1.528921188289311640e-04
8.190000000000000000e+04,5.896666666666666159e-04,3.652414726360265975e-04
9.010000000000000000e+04,5.379999999999999583e-04,2.034772714580180956e-04
9.830000000000000000e+04,5.896666666666666159e-04,2.623477336157744254e-04
1.060000000000000000e+05,4.930000000000000571e-04,1.924681791881452527e-04
1.150000000000000000e+05,6.900000000000000751e-04,2.775896251663595589e-04
1.230000000000000000e+05,6.196666666666666946e-04,2.365297726150628814e-04
1.310000000000000000e+05,6.949999999999999798e-04,1.922810443075447320e-04
1.470000000000000000e+05,5.726666666666666364e-04,3.701679798866094840e-04
1.640000000000000000e+05,5.920000000000000782e-04,2.894460226017970140e-04
1.800000000000000000e+05,5.439999999999999957e-04,2.985314053830853275e-04
1.970000000000000000e+05,4.060000000000000566e-04,2.055893966137359123e-04
2.130000000000000000e+05,4.796666666666667069e-04,2.954696825959193763e-04
2.290000000000000000e+05,5.346666666666666885e-04,3.300156561942680484e-04
2.460000000000000000e+05,4.363333333333332779e-04,1.909563649982197377e-04
2.620000000000000000e+05,5.026666666666666696e-04,3.850108223587142895e-05
2.950000000000000000e+05,5.490000000000000088e-04,7.336893075410053458e-05
3.280000000000000000e+05,6.263333333333332342e-04,1.395719647111601680e-04
3.600000000000000000e+05,5.249999999999999676e-04,7.590125163658368516e-05
3.930000000000000000e+05,5.676666666666666233e-04,1.721433511156714039e-04
4.260000000000000000e+05,4.793333333333332931e-04,3.123464956315875505e-04
4.590000000000000000e+05,4.836666666666665873e-04,1.662297606727908934e-04
4.920000000000000000e+05,3.953333333333333113e-04,2.730317441861538036e-04
5.240000000000000000e+05,4.326666666666666486e-04,1.077512567598787991e-04
5.900000000000000000e+05,5.063333333333333531e-04,2.375969977363630856e-04
6.550000000000000000e+05,4.703333333333332912e-04,2.818391976523727094e-05
7.210000000000000000e+05,5.593333333333332319e-04,5.361280941466635560e-05
7.860000000000000000e+05,4.576666666666667142e-04,1.308217616963375544e-04
8.520000000000000000e+05,4.383333333333333266e-04,2.919149419494200992e-04
9.180000000000000000e+05,2.919999999999999961e-04,1.648484152183453746e-04
9.830000000000000000e+05,3.823333333333333206e-04,2.418394784424853503e-04
1.050000000000000000e+06,5.720000000000000258e-04,9.269843580125823894e-05
1.180000000000000000e+06,2.466666666666666812e-04,2.254602699664251910e-04
1.310000000000000000e+06,2.876666666666667020e-04,1.557251852891282829e-04
1.440000000000000000e+06,5.509999999999999490e-04,1.729710958513011338e-04
1.570000000000000000e+06,3.593333333333333037e-04,2.402859407733489198e-04
1.700000000000000000e+06,4.546666666666665871e-04,6.251666444503682846e-05
1.840000000000000000e+06,4.243333333333333657e-04,1.960008503382914462e-04
1.970000000000000000e+06,4.829999999999999767e-04,1.717876596266449047e-04
2.100000000000000000e+06,6.279999999999999775e-04,2.844855005092526527e-04
2.360000000000000000e+06,7.833333333333333641e-04,8.832515685428095288e-05
2.620000000000000000e+06,5.356666666666666044e-04,1.152142930947950010e-04
2.880000000000000000e+06,3.426666666666666294e-04,2.627419519858472261e-05
3.150000000000000000e+06,6.169999999999999270e-04,1.855990301698799097e-04
3.410000000000000000e+06,8.576666666666667334e-04,1.606683955646951627e-04
3.670000000000000000e+06,5.706666666666666962e-04,2.774388821584554648e-04
3.930000000000000000e+06,7.696666666666667628e-04,1.929516346998214440e-04
4.190000000000000000e+06,0.000000000000000000e+00,0.000000000000000000e+00
4.720000000000000000e+06,0.000000000000000000e+00,0.000000000000000000e+00
5.240000000000000000e+06,0.000000000000000000e+00,0.000000000000000000e+00
5.770000000000000000e+06,0.000000000000000000e+00,0.000000000000000000e+00
6.290000000000000000e+06,0.000000000000000000e+00,0.000000000000000000e+00
6.820000000000000000e+06,0.000000000000000000e+00,0.000000000000000000e+00
7.340000000000000000e+06,0.000000000000000000e+00,0.000000000000000000e+00
7.860000000000000000e+06,0.000000000000000000e+00,0.000000000000000000e+00
8.390000000000000000e+06,0.000000000000000000e+00,0.000000000000000000e+00
9.440000000000000000e+06,0.000000000000000000e+00,0.000000000000000000e+00
1.050000000000000000e+07,0.000000000000000000e+00,0.000000000000000000e+00
1.150000000000000000e+07,0.000000000000000000e+00,0.000000000000000000e+00
1.260000000000000000e+07,0.000000000000000000e+00,0.000000000000000000e+00
1.360000000000000000e+07,0.000000000000000000e+00,0.000000000000000000e+00
1.470000000000000000e+07,0.000000000000000000e+00,0.000000000000000000e+00
1.570000000000000000e+07,0.000000000000000000e+00,0.000000000000000000e+00
1.680000000000000000e+07,0.000000000000000000e+00,0.000000000000000000e+00
1.890000000000000000e+07,0.000000000000000000e+00,0.000000000000000000e+00
2.100000000000000000e+07,0.000000000000000000e+00,0.000000000000000000e+00
2.310000000000000000e+07,0.000000000000000000e+00,0.000000000000000000e+00
2.520000000000000000e+07,0.000000000000000000e+00,0.000000000000000000e+00
2.730000000000000000e+07,0.000000000000000000e+00,0.000000000000000000e+00
2.940000000000000000e+07,0.000000000000000000e+00,0.000000000000000000e+00
3.150000000000000000e+07,0.000000000000000000e+00,0.000000000000000000e+00
3.360000000000000000e+07,0.000000000000000000e+00,0.000000000000000000e+00
3.770000000000000000e+07,0.000000000000000000e+00,0.000000000000000000e+00
4.190000000000000000e+07,0.000000000000000000e+00,0.000000000000000000e+00
4.610000000000000000e+07,0.000000000000000000e+00,0.000000000000000000e+00
5.030000000000000000e+07,0.000000000000000000e+00,0.000000000000000000e+00
5.450000000000000000e+07,0.000000000000000000e+00,0.000000000000000000e+00
5.870000000000000000e+07,0.000000000000000000e+00,0.000000000000000000e+00
