Lag Time [us], Avg. Corr. [-], Std. Dev. Corr. [-]
5.000000000000000000e-01,9.120000000000000329e-01,5.196152422706636076e-03
1.000000000000000000e+00,9.166666666666666297e-01,4.618802153517010713e-03
1.500000000000000000e+00,9.136666666666667380e-01,4.618802153517010713e-03
2.000000000000000000e+00,9.103333333333333277e-01,4.041451884327383615e-03
2.500000000000000000e+00,9.083333333333333259e-01,5.859465277082320095e-03
3.000000000000000000e+00,9.046666666666666190e-01,4.618802153517010713e-03
3.500000000000000000e+00,9.023333333333333206e-01,5.773502691896262307e-03
4.000000000000000000e+00,8.993333333333334290e-01,4.932882862316251803e-03
4.500000000000000000e+00,8.963333333333333153e-01,4.932882862316251803e-03
5.500000000000000000e+00,8.906666666666666066e-01,5.507570547286106885e-03
6.500000000000000000e+00,8.849999999999998979e-01,6.082762530298224841e-03
7.500000000000000000e+00,8.793333333333333002e-01,4.932882862316251803e-03
8.500000000000000000e+00,8.733333333333334059e-01,4.932882862316251803e-03
9.500000000000000000e+00,8.683333333333332904e-01,4.163331998932269518e-03
1.050000000000000000e+01,8.629999999999999893e-01,5.291502622129185852e-03
1.150000000000000000e+01,8.570000000000000950e-01,4.358898943540677820e-03
1.250000000000000000e+01,8.516666666666665719e-01,4.618802153517010713e-03
1.450000000000000000e+01,8.396666666666666723e-01,4.618802153517010713e-03
1.650000000000000000e+01,8.286666666666665515e-01,4.618802153517010713e-03
1.850000000000000000e+01,8.186666666666666536e-01,3.785938897200185650e-03
2.050000000000000000e+01,8.076666666666666439e-01,4.725815626252550215e-03
2.250000000000000000e+01,7.970000000000000417e-01,4.358898943540677820e-03
2.450000000000000000e+01,7.869999999999999218e-01,4.358898943540677820e-03
2.650000000000000000e+01,7.763333333333334307e-01,4.041451884327383615e-03
2.850000000000000000e+01,7.666666666666666075e-01,4.725815626252612665e-03
3.250000000000000000e+01,7.466666666666667007e-01,4.618802153517010713e-03
3.650000000000000000e+01,7.276666666666665728e-01,3.785938897200185650e-03
4.050000000000000000e+01,7.089999999999999636e-01,4.358898943540677820e-03
4.450000000000000000e+01,6.903333333333332433e-01,4.041451884327383615e-03
4.850000000000000000e+01,6.723333333333334494e-01,4.163331998932269518e-03
5.250000000000000000e+01,6.553333333333334343e-01,4.041451884327383615e-03
5.650000000000000000e+01,6.383333333333333082e-01,4.041451884327383615e-03
6.050000000000000000e+01,6.219999999999999973e-01,4.358898943540677820e-03
6.850000000000000000e+01,5.906666666666666732e-01,3.785938897200185650e-03
7.650000000000000000e+01,5.609999999999999432e-01,4.358898943540613635e-03
8.450000000000000000e+01,5.323333333333333250e-01,4.163331998932269518e-03
9.250000000000000000e+01,5.050000000000000044e-01,3.605551275463992570e-03
1.010000000000000000e+02,4.793333333333333335e-01,3.511884584284249728e-03
1.090000000000000000e+02,4.553333333333333677e-01,3.511884584284249728e-03
1.170000000000000000e+02,4.323333333333332917e-01,3.511884584284249728e-03
1.250000000000000000e+02,4.106666666666666798e-01,3.055050463303895809e-03
1.410000000000000000e+02,3.703333333333333477e-01,2.516611478423585232e-03
1.570000000000000000e+02,3.336666666666667225e-01,2.516611478423585232e-03
1.730000000000000000e+02,3.006666666666666377e-01,2.516611478423585232e-03
1.890000000000000000e+02,2.710000000000000187e-01,2.000000000000001776e-03
2.050000000000000000e+02,2.443333333333333190e-01,2.081665999466134759e-03
2.210000000000000000e+02,2.203333333333333532e-01,1.527525231651947904e-03
2.370000000000000000e+02,1.983333333333333337e-01,1.154700538379252678e-03
2.530000000000000000e+02,1.793333333333333446e-01,1.154700538379252678e-03
2.850000000000000000e+02,1.459999999999999909e-01,0.000000000000000000e+00
3.170000000000000000e+02,1.189999999999999947e-01,0.000000000000000000e+00
3.490000000000000000e+02,9.683333333333332682e-02,4.932882862316228601e-04
3.810000000000000000e+02,7.873333333333332185e-02,1.006644591369433572e-03
4.130000000000000000e+02,6.426666666666665251e-02,1.386842937514311952e-03
4.450000000000000000e+02,5.240000000000000213e-02,2.066397831977181358e-03
4.770000000000000000e+02,4.273333333333332457e-02,2.025668613898466350e-03
5.090000000000000000e+02,3.526666666666666144e-02,2.112660250332108487e-03
5.730000000000000000e+02,2.376666666666666858e-02,2.715388247255506437e-03
6.370000000000000000e+02,1.576666666666666841e-02,2.542308662089113203e-03
7.010000000000000000e+02,1.029333333333333315e-02,2.268134328767441865e-03
7.650000000000000000e+02,6.690000000000000634e-03,2.565794224017194699e-03
8.290000000000000000e+02,4.423333333333333804e-03,2.886526170560962425e-03
8.930000000000000000e+02,3.413333333333332890e-03,3.071503432088808910e-03
9.570000000000000000e+02,2.973333333333333470e-03,2.631241785418689597e-03
1.020000000000000000e+03,2.174333333333333240e-03,1.793924840491745122e-03
1.150000000000000000e+03,1.843333333333333325e-03,9.962596716385407804e-04
1.280000000000000000e+03,2.096666666666666817e-03,4.974267115197306436e-04
1.400000000000000000e+03,2.236666666666666751e-03,9.473295801004703821e-04
1.530000000000000000e+03,1.981333333333333210e-03,1.446950356208993741e-03
1.660000000000000000e+03,2.232666666666666654e-03,1.981181802191140165e-03
1.790000000000000000e+03,1.950666666666666738e-03,1.625989339858454740e-03
1.920000000000000000e+03,1.971333333333333184e-03,9.585850683863863684e-04
2.040000000000000000e+03,1.761999999999999894e-03,9.170016357673523629e-04
2.300000000000000000e+03,1.893333333333333457e-03,5.783021125098312520e-04
2.560000000000000000e+03,1.800000000000000168e-03,3.380828300875393612e-04
2.810000000000000000e+03,1.899999999999999779e-03,7.369531871157082798e-04
3.070000000000000000e+03,1.570000000000000215e-03,3.811823710509183814e-04
3.320000000000000000e+03,1.296666666666666671e-03,4.273562136360407621e-04
3.580000000000000000e+03,1.338666666666666824e-03,6.529818782579905993e-04
3.840000000000000000e+03,1.472000000000000001e-03,7.053878365835351133e-04
4.090000000000000000e+03,1.095666666666666664e-03,4.116871789761412438e-04
4.600000000000000000e+03,9.316666666666665805e-04,6.609904184882963970e-04
5.120000000000000000e+03,1.080333333333333319e-03,7.981179946181725339e-04
5.630000000000000000e+03,1.147666666666666627e-03,7.536155076252965207e-04
6.140000000000000000e+03,1.160333333333333312e-03,8.530195386586014467e-04
6.650000000000000000e+03,1.234666666666666681e-03,6.060902023076543453e-04
7.160000000000000000e+03,2.146666666666666515e-03,8.105142400558630177e-04
7.680000000000000000e+03,1.049999999999999935e-03,5.023753576759114586e-04
8.190000000000000000e+03,1.669999999999999827e-03,4.014971979976946913e-04
9.210000000000000000e+03,1.396666666666666716e-03,2.759226944876649727e-04
1.020000000000000000e+04,8.579999999999999303e-04,4.600097825046767165e-04
1.130000000000000000e+04,7.766666666666667161e-04,2.831224705552939664e-04
1.230000000000000000e+04,7.493333333333332966e-04,4.262409334324114281e-04
1.330000000000000000e+04,1.438000000000000042e-03,6.901680954666045750e-04
1.430000000000000000e+04,1.088666666666666819e-03,7.322331140650040725e-04
1.540000000000000000e+04,1.236333333333333425e-03,7.085903847310753845e-04
1.640000000000000000e+04,8.809999999999999472e-04,4.226499733822302717e-04
1.840000000000000000e+04,7.729999999999999242e-04,6.250575973460366103e-04
2.050000000000000000e+04,1.230666666666666584e-03,7.114044794161289821e-04
2.250000000000000000e+04,7.630000000000001148e-04,5.114870477343488398e-04
2.460000000000000000e+04,1.074000000000000085e-03,3.178726159957790927e-04
2.660000000000000000e+04,4.401999999999999663e-04,3.592994851095670356e-04
2.870000000000000000e+04,7.796666666666666806e-04,2.094787180916795190e-04
3.070000000000000000e+04,4.910000000000000085e-04,1.904415920958444286e-04
3.280000000000000000e+04,9.333333333333334323e-04,3.236886363982111828e-04
3.690000000000000000e+04,6.306666666666666367e-04,1.706233669030514887e-04
4.100000000000000000e+04,7.950000000000000252e-04,3.722351407376794344e-04
4.510000000000000000e+04,5.487666666666666518e-04,5.558832281453842750e-04
4.910000000000000000e+04,7.843333333333333884e-04,1.390011990355958724e-04
5.320000000000000000e+04,4.246666666666666710e-04,2.796003099664471692e-04
5.730000000000000000e+04,9.736666666666666256e-04,4.194643409556208678e-04
6.140000000000000000e+04,5.533333333333333029e-04,1.241786347699688905e-04
6.550000000000000000e+04,4.226666666666666766e-04,1.897269968489812420e-04
7.370000000000000000e+04,3.723333333333332944e-04,7.681362726322283360e-05
8.190000000000000000e+04,3.323333333333333521e-04,1.985002099075296449e-04
9.010000000000000000e+04,5.273333333333333215e-04,1.923573064204563252e-04
9.830000000000000000e+04,5.470000000000000686e-04,4.004834578356514783e-04
1.060000000000000000e+05,4.079333333333332924e-04,4.580310178725162580e-04
1.150000000000000000e+05,7.046666666666667007e-04,5.934082349726311497e-05
1.230000000000000000e+05,5.293333333333333701e-04,1.442959920903325879e-04
1.310000000000000000e+05,5.153333333333333550e-04,2.961626805209146185e-04
1.470000000000000000e+05,4.976666666666666565e-04,2.431755196012405759e-04
1.640000000000000000e+05,4.730000000000000589e-04,1.585023659129414751e-04
1.800000000000000000e+05,1.620000000000000075e-04,5.250714237130029989e-05
1.970000000000000000e+05,3.036666666666666572e-04,7.752633961005339310e-05
2.130000000000000000e+05,2.363999999999999999e-04,1.684911867131334492e-04
2.290000000000000000e+05,2.577333333333333277e-04,1.546661350565576524e-04
2.460000000000000000e+05,2.540000000000000482e-04,1.155724880756661840e-04
2.620000000000000000e+05,5.113333333333333662e-04,3.141358517159945529e-04
2.950000000000000000e+05,3.829999999999999312e-04,1.555409913816933366e-04
3.280000000000000000e+05,5.073333333333333774e-04,6.969457176375601110e-05
3.600000000000000000e+05,3.830000000000000396e-04,6.596211033616192231e-05
3.930000000000000000e+05,2.613333333333333068e-04,7.617304860207009933e-05
4.260000000000000000e+05,3.446666666666666780e-04,1.372746638434541120e-04
4.590000000000000000e+05,3.509999999999999665e-04,1.703672503740082187e-04
4.920000000000000000e+05,3.086666666666666703e-04,1.751694417794762853e-04
5.240000000000000000e+05,2.683000000000000163e-04,2.208138809042583801e-04
5.900000000000000000e+05,3.113333333333333296e-04,1.666893317922095951e-04
6.550000000000000000e+05,2.573333333333333180e-04,1.523953192632022133e-04
7.210000000000000000e+05,4.626666666666666189e-04,2.396441806790503731e-04
7.860000000000000000e+05,4.006666666666666298e-04,4.042688874169434902e-05
8.520000000000000000e+05,4.748666666666666986e-04,4.295470327372002245e-04
9.180000000000000000e+05,4.589999999999999896e-04,2.622803843218169816e-04
9.830000000000000000e+05,2.603333333333333367e-04,6.755985000970127837e-05
1.050000000000000000e+06,4.583333333333333248e-04,5.676559991168359892e-05
1.180000000000000000e+06,4.496666666666666282e-04,2.874601421646719504e-05
1.310000000000000000e+06,6.043333333333333500e-04,4.163488120954992244e-04
1.440000000000000000e+06,5.413333333333333365e-04,2.411085509336683384e-04
1.570000000000000000e+06,5.960000000000000671e-04,3.477297801454457124e-04
1.700000000000000000e+06,8.216666666666667257e-04,2.122789045885938258e-04
1.840000000000000000e+06,5.159999999999999656e-04,1.535675747024742104e-04
1.970000000000000000e+06,5.963333333333333723e-04,3.238662275281776874e-04
2.100000000000000000e+06,7.339999999999999520e-04,2.286853733844820889e-04
2.360000000000000000e+06,9.103333333333334153e-04,4.845000859993043164e-04
2.620000000000000000e+06,5.993333333333333368e-04,9.346835471609270089e-05
2.880000000000000000e+06,6.166666666666666217e-04,2.237863564503728413e-04
3.150000000000000000e+06,5.556666666666666568e-04,2.828291592699263071e-04
3.410000000000000000e+06,7.656666666666667740e-04,5.107899111506935142e-04
3.670000000000000000e+06,6.926666666666666259e-04,1.018642888029624061e-04
3.930000000000000000e+06,7.529999999999998717e-04,1.873045648135677230e-04
4.190000000000000000e+06,0.000000000000000000e+00,0.000000000000000000e+00
4.720000000000000000e+06,0.000000000000000000e+00,0.000000000000000000e+00
5.240000000000000000e+06,0.000000000000000000e+00,0.000000000000000000e+00
5.770000000000000000e+06,0.000000000000000000e+00,0.000000000000000000e+00
6.290000000000000000e+06,0.000000000000000000e+00,0.000000000000000000e+00
6.820000000000000000e+06,0.000000000000000000e+00,0.000000000000000000e+00
7.340000000000000000e+06,0.000000000000000000e+00,0.000000000000000000e+00
7.860000000000000000e+06,0.000000000000000000e+00,0.000000000000000000e+00
8.390000000000000000e+06,0.000000000000000000e+00,0.000000000000000000e+00
9.440000000000000000e+06,0.000000000000000000e+00,0.000000000000000000e+00
1.050000000000000000e+07,0.000000000000000000e+00,0.000000000000000000e+00
1.150000000000000000e+07,0.000000000000000000e+00,0.000000000000000000e+00
1.260000000000000000e+07,0.000000000000000000e+00,0.000000000000000000e+00
1.360000000000000000e+07,0.000000000000000000e+00,0.000000000000000000e+00
1.470000000000000000e+07,0.000000000000000000e+00,0.000000000000000000e+00
1.570000000000000000e+07,0.000000000000000000e+00,0.000000000000000000e+00
1.680000000000000000e+07,0.000000000000000000e+00,0.000000000000000000e+00
1.890000000000000000e+07,0.000000000000000000e+00,0.000000000000000000e+00
2.100000000000000000e+07,0.000000000000000000e+00,0.000000000000000000e+00
2.310000000000000000e+07,0.000000000000000000e+00,0.000000000000000000e+00
2.520000000000000000e+07,0.000000000000000000e+00,0.000000000000000000e+00
2.730000000000000000e+07,0.000000000000000000e+00,0.000000000000000000e+00
2.940000000000000000e+07,0.000000000000000000e+00,0.000000000000000000e+00
3.150000000000000000e+07,0.000000000000000000e+00,0.000000000000000000e+00
3.360000000000000000e+07,0.000000000000000000e+00,0.000000000000000000e+00
3.770000000000000000e+07,0.000000000000000000e+00,0.000000000000000000e+00
4.190000000000000000e+07,0.000000000000000000e+00,0.000000000000000000e+00
4.610000000000000000e+07,0.000000000000000000e+00,0.000000000000000000e+00
5.030000000000000000e+07,0.000000000000000000e+00,0.000000000000000000e+00
5.450000000000000000e+07,0.000000000000000000e+00,0.000000000000000000e+00
5.870000000000000000e+07,0.000000000000000000e+00,0.000000000000000000e+00
