Lag Time [us], Avg. Corr. [-], Std. Dev. Corr. [-]
5.000000000000000000e-01,8.468888888888888022e-01,9.386751893552491149e-03
1.000000000000000000e+00,8.307777777777778372e-01,8.511430223202477718e-03
1.500000000000000000e+00,8.121111111111112280e-01,7.025746302785949339e-03
2.000000000000000000e+00,7.917777777777779136e-01,8.700255424092133427e-03
2.500000000000000000e+00,7.768888888888887401e-01,7.865183475997952409e-03
3.000000000000000000e+00,7.617777777777778869e-01,7.049428660852206235e-03
3.500000000000000000e+00,7.454444444444444651e-01,7.923242882669816189e-03
4.000000000000000000e+00,7.301111111111110441e-01,6.679154969837965659e-03
4.500000000000000000e+00,7.154444444444444384e-01,7.518495712426647229e-03
5.500000000000000000e+00,6.877777777777777102e-01,6.476453075908442797e-03
6.500000000000000000e+00,6.602222222222223769e-01,7.886345442880660431e-03
7.500000000000000000e+00,6.346666666666667123e-01,7.533259586659688326e-03
8.500000000000000000e+00,6.106666666666666909e-01,6.708203932499375716e-03
9.500000000000000000e+00,5.864444444444444349e-01,8.001735922771875675e-03
1.050000000000000000e+01,5.652222222222221815e-01,7.710022337480219520e-03
1.150000000000000000e+01,5.430000000000000382e-01,8.306623862918081566e-03
1.250000000000000000e+01,5.232222222222222552e-01,8.983008652141251382e-03
1.450000000000000000e+01,4.853333333333333943e-01,9.165151389911687860e-03
1.650000000000000000e+01,4.506666666666666599e-01,1.064189832689639049e-02
1.850000000000000000e+01,4.185555555555555696e-01,9.619136020338715440e-03
2.050000000000000000e+01,3.892222222222222472e-01,1.030506887140715012e-02
2.250000000000000000e+01,3.623333333333332851e-01,1.065363787633126849e-02
2.450000000000000000e+01,3.367777777777777870e-01,1.091762082344152965e-02
2.650000000000000000e+01,3.140000000000000013e-01,1.134680571791022753e-02
2.850000000000000000e+01,2.941111111111111565e-01,1.115173130554672661e-02
3.250000000000000000e+01,2.568888888888889444e-01,1.152653942478449808e-02
3.650000000000000000e+01,2.247777777777777986e-01,1.191404400044101045e-02
4.050000000000000000e+01,1.977777777777777746e-01,1.180865972261223133e-02
4.450000000000000000e+01,1.753333333333333133e-01,1.148912529307605582e-02
4.850000000000000000e+01,1.563333333333333242e-01,1.147824028324900131e-02
5.250000000000000000e+01,1.391111111111111021e-01,1.163447940868481828e-02
5.650000000000000000e+01,1.250000000000000000e-01,1.061838029079765003e-02
6.050000000000000000e+01,1.131999999999999951e-01,1.094292008560786289e-02
6.850000000000000000e+01,9.274444444444444879e-02,1.027108941533359451e-02
7.650000000000000000e+01,7.754444444444445750e-02,1.002984435461377194e-02
8.450000000000000000e+01,6.561111111111110616e-02,9.563791670206494774e-03
9.250000000000000000e+01,5.667777777777777831e-02,9.307493993790402417e-03
1.010000000000000000e+02,4.891111111111110660e-02,8.617778780585581833e-03
1.090000000000000000e+02,4.275555555555554665e-02,8.260010761359683554e-03
1.170000000000000000e+02,3.895555555555555577e-02,8.228473599506640548e-03
1.250000000000000000e+02,3.521111111111110969e-02,7.872490781900675499e-03
1.410000000000000000e+02,3.043333333333333654e-02,7.561084578286372815e-03
1.570000000000000000e+02,2.681111111111110501e-02,7.683496021415714416e-03
1.730000000000000000e+02,2.464444444444444451e-02,7.412845457567409681e-03
1.890000000000000000e+02,2.225555555555555967e-02,6.984108946585653767e-03
2.050000000000000000e+02,2.116666666666666696e-02,6.760732208866138127e-03
2.210000000000000000e+02,2.032222222222222416e-02,7.016369748270428856e-03
2.370000000000000000e+02,2.003666666666666443e-02,7.037336143740754481e-03
2.530000000000000000e+02,1.906999999999999668e-02,6.745098220189236354e-03
2.850000000000000000e+02,1.807666666666666797e-02,7.283110599187685337e-03
3.170000000000000000e+02,1.712444444444444214e-02,6.735397373412928788e-03
3.490000000000000000e+02,1.636333333333333390e-02,6.606394629448047312e-03
3.810000000000000000e+02,1.559999999999999928e-02,6.450854594547919367e-03
4.130000000000000000e+02,1.520222222222222114e-02,6.530748000378244593e-03
4.450000000000000000e+02,1.401333333333333424e-02,6.242555566432709223e-03
4.770000000000000000e+02,1.306888888888888857e-02,5.535141019984144047e-03
5.090000000000000000e+02,1.247111111111110990e-02,5.085470588953505677e-03
5.730000000000000000e+02,1.191111111111111190e-02,5.202603781868373953e-03
6.370000000000000000e+02,1.103111111111110959e-02,5.020830221299172995e-03
7.010000000000000000e+02,1.003444444444444479e-02,4.966261448794030177e-03
7.650000000000000000e+02,9.092222222222222025e-03,4.427608772740026892e-03
8.290000000000000000e+02,8.630000000000000518e-03,4.617426231137862318e-03
8.930000000000000000e+02,7.482111111111112121e-03,4.400607925174783094e-03
9.570000000000000000e+02,7.114444444444444939e-03,3.633122318031390199e-03
1.020000000000000000e+03,6.857777777777776876e-03,3.397991236663867702e-03
1.150000000000000000e+03,6.495555555555555631e-03,3.540512360913004343e-03
1.280000000000000000e+03,5.408111111111111799e-03,3.229749156066320532e-03
1.400000000000000000e+03,5.098888888888888915e-03,2.828932857299923907e-03
1.530000000000000000e+03,4.340111111111110559e-03,2.682923612612016055e-03
1.660000000000000000e+03,4.537777777777777730e-03,2.035023204890903676e-03
1.790000000000000000e+03,3.745555555555555357e-03,1.874974073894830747e-03
1.920000000000000000e+03,3.200111111111111038e-03,2.104764027417589320e-03
2.040000000000000000e+03,2.999333333333333886e-03,1.889287762623788466e-03
2.300000000000000000e+03,2.365111111111111233e-03,1.335451276202584327e-03
2.560000000000000000e+03,2.424444444444444780e-03,1.159020180056317051e-03
2.810000000000000000e+03,2.218111111111110804e-03,1.169842771961732749e-03
3.070000000000000000e+03,2.136666666666666922e-03,1.182672397581003773e-03
3.320000000000000000e+03,1.991777777777777644e-03,1.247628728606569150e-03
3.580000000000000000e+03,2.156666666666666541e-03,1.043504192612564356e-03
3.840000000000000000e+03,1.897999999999999948e-03,1.187287244098916405e-03
4.090000000000000000e+03,1.632666666666666815e-03,1.056462375099085239e-03
4.600000000000000000e+03,1.629777777777777735e-03,8.698153220336168065e-04
5.120000000000000000e+03,1.556888888888888689e-03,7.880367130477559197e-04
5.630000000000000000e+03,1.551444444444444702e-03,8.822285858992428426e-04
6.140000000000000000e+03,1.384000000000000031e-03,6.948548409560086720e-04
6.650000000000000000e+03,1.391666666666666703e-03,9.038033525053997680e-04
7.160000000000000000e+03,1.246777777777777858e-03,6.010365583260675586e-04
7.680000000000000000e+03,1.295666666666666755e-03,6.850914172575802439e-04
8.190000000000000000e+03,1.334222222222222320e-03,5.612532355759248170e-04
9.210000000000000000e+03,1.267222222222222318e-03,6.166220028870559840e-04
1.020000000000000000e+04,1.655777777777777716e-03,8.033207295000200157e-04
1.130000000000000000e+04,1.493444444444444377e-03,6.714467795572317231e-04
1.230000000000000000e+04,1.341333333333333483e-03,5.059439198172065773e-04
1.330000000000000000e+04,1.398455555555555606e-03,8.514173875237559608e-04
1.430000000000000000e+04,1.219555555555555540e-03,9.683690039327867791e-04
1.540000000000000000e+04,1.420000000000000255e-03,9.034324822586357146e-04
1.640000000000000000e+04,1.317888888888888842e-03,9.518293497844616596e-04
1.840000000000000000e+04,1.355888888888888899e-03,7.019484390687902049e-04
2.050000000000000000e+04,1.361966666666666577e-03,8.157222934307974084e-04
2.250000000000000000e+04,1.171111111111111051e-03,8.279777238012572425e-04
2.460000000000000000e+04,1.279333333333333277e-03,7.654149201576880687e-04
2.660000000000000000e+04,1.139222222222222459e-03,8.438905109339981531e-04
2.870000000000000000e+04,1.185333333333333161e-03,6.554572831237745565e-04
3.070000000000000000e+04,1.487888888888889071e-03,6.898000515447292756e-04
3.280000000000000000e+04,1.244555555555555389e-03,7.722056253212468066e-04
3.690000000000000000e+04,1.346111111111111293e-03,7.756759059756278274e-04
4.100000000000000000e+04,1.164555555555555396e-03,7.446801513252370146e-04
4.510000000000000000e+04,1.219555555555555540e-03,6.365842660463559956e-04
4.910000000000000000e+04,1.092111111111111190e-03,5.383916893035320481e-04
5.320000000000000000e+04,1.036222222222222232e-03,5.406872427239655830e-04
5.730000000000000000e+04,1.082911111111110967e-03,7.361320677100755211e-04
6.140000000000000000e+04,9.873333333333335522e-04,5.776343999451555994e-04
6.550000000000000000e+04,1.003666666666666596e-03,6.215571172466774399e-04
7.370000000000000000e+04,1.018888888888888839e-03,5.347128772632197624e-04
8.190000000000000000e+04,1.018666666666666852e-03,6.370578859099069666e-04
9.010000000000000000e+04,9.151111111111111165e-04,5.369516841496179554e-04
9.830000000000000000e+04,8.824444444444445954e-04,5.028735206568126209e-04
1.060000000000000000e+05,8.573333333333332112e-04,6.437381066862517742e-04
1.150000000000000000e+05,8.951111111111111724e-04,6.117582129494552766e-04
1.230000000000000000e+05,8.223333333333333363e-04,6.577271470754419806e-04
1.310000000000000000e+05,9.855555555555554903e-04,5.602153851669711008e-04
1.470000000000000000e+05,7.136666666666667026e-04,4.933515480871627319e-04
1.640000000000000000e+05,7.660000000000000793e-04,6.369432863293245659e-04
1.800000000000000000e+05,8.035555555555555117e-04,7.257544541907942452e-04
1.970000000000000000e+05,7.273333333333334124e-04,5.923233914003397244e-04
2.130000000000000000e+05,7.129999999999998752e-04,6.381326272805676802e-04
2.290000000000000000e+05,5.909999999999999455e-04,5.874772336014391768e-04
2.460000000000000000e+05,5.559311111111111571e-04,7.011548350479450192e-04
2.620000000000000000e+05,6.447777777777778619e-04,6.278745451477105556e-04
2.950000000000000000e+05,7.107777777777777315e-04,5.549269721724152350e-04
3.280000000000000000e+05,6.688555555555554359e-04,7.007258292497698954e-04
3.600000000000000000e+05,5.829999999999999679e-04,6.739556736165962670e-04
3.930000000000000000e+05,6.181777777777777575e-04,7.632386811767629580e-04
4.260000000000000000e+05,5.511111111111111592e-04,6.467232028550631319e-04
4.590000000000000000e+05,7.003333333333332982e-04,6.744725717180795246e-04
4.920000000000000000e+05,5.694444444444443599e-04,5.915386950807003134e-04
5.240000000000000000e+05,5.182222222222222178e-04,5.705895586535425154e-04
5.900000000000000000e+05,4.883333333333332409e-04,5.994393213662246520e-04
6.550000000000000000e+05,5.594444444444444421e-04,6.638243576261552851e-04
7.210000000000000000e+05,5.139999999999999170e-04,6.077820332981223594e-04
7.860000000000000000e+05,5.587777777777777231e-04,8.692752409015480327e-04
8.520000000000000000e+05,5.312000000000000098e-04,7.555377952160964496e-04
9.180000000000000000e+05,5.574111111111110413e-04,6.712567475348841031e-04
9.830000000000000000e+05,5.376777777777778065e-04,8.094503131412356762e-04
1.050000000000000000e+06,6.936666666666666502e-04,6.043777792076740962e-04
1.180000000000000000e+06,6.873333333333334159e-04,4.762328737078111679e-04
1.310000000000000000e+06,6.238888888888888869e-04,4.685972269562754550e-04
1.440000000000000000e+06,5.330000000000000536e-04,5.693764132803535343e-04
1.570000000000000000e+06,3.782333333333333836e-04,3.888241119066564297e-04
1.700000000000000000e+06,5.636666666666667429e-04,3.708658787216748045e-04
1.840000000000000000e+06,4.339222222222222829e-04,3.528179480191511981e-04
1.970000000000000000e+06,4.894333333333333218e-04,2.674164168483304056e-04
2.100000000000000000e+06,0.000000000000000000e+00,0.000000000000000000e+00
2.360000000000000000e+06,0.000000000000000000e+00,0.000000000000000000e+00
2.620000000000000000e+06,0.000000000000000000e+00,0.000000000000000000e+00
2.880000000000000000e+06,0.000000000000000000e+00,0.000000000000000000e+00
3.150000000000000000e+06,0.000000000000000000e+00,0.000000000000000000e+00
3.410000000000000000e+06,0.000000000000000000e+00,0.000000000000000000e+00
3.670000000000000000e+06,0.000000000000000000e+00,0.000000000000000000e+00
3.930000000000000000e+06,0.000000000000000000e+00,0.000000000000000000e+00
4.190000000000000000e+06,0.000000000000000000e+00,0.000000000000000000e+00
4.720000000000000000e+06,0.000000000000000000e+00,0.000000000000000000e+00
5.240000000000000000e+06,0.000000000000000000e+00,0.000000000000000000e+00
5.770000000000000000e+06,0.000000000000000000e+00,0.000000000000000000e+00
6.290000000000000000e+06,0.000000000000000000e+00,0.000000000000000000e+00
6.820000000000000000e+06,0.000000000000000000e+00,0.000000000000000000e+00
7.340000000000000000e+06,0.000000000000000000e+00,0.000000000000000000e+00
7.860000000000000000e+06,0.000000000000000000e+00,0.000000000000000000e+00
8.390000000000000000e+06,0.000000000000000000e+00,0.000000000000000000e+00
9.440000000000000000e+06,0.000000000000000000e+00,0.000000000000000000e+00
1.050000000000000000e+07,0.000000000000000000e+00,0.000000000000000000e+00
1.150000000000000000e+07,0.000000000000000000e+00,0.000000000000000000e+00
1.260000000000000000e+07,0.000000000000000000e+00,0.000000000000000000e+00
1.360000000000000000e+07,0.000000000000000000e+00,0.000000000000000000e+00
1.470000000000000000e+07,0.000000000000000000e+00,0.000000000000000000e+00
1.570000000000000000e+07,0.000000000000000000e+00,0.000000000000000000e+00
1.680000000000000000e+07,0.000000000000000000e+00,0.000000000000000000e+00
1.890000000000000000e+07,0.000000000000000000e+00,0.000000000000000000e+00
2.100000000000000000e+07,0.000000000000000000e+00,0.000000000000000000e+00
2.310000000000000000e+07,0.000000000000000000e+00,0.000000000000000000e+00
2.520000000000000000e+07,0.000000000000000000e+00,0.000000000000000000e+00
2.730000000000000000e+07,0.000000000000000000e+00,0.000000000000000000e+00
2.940000000000000000e+07,0.000000000000000000e+00,0.000000000000000000e+00
3.150000000000000000e+07,0.000000000000000000e+00,0.000000000000000000e+00
3.360000000000000000e+07,0.000000000000000000e+00,0.000000000000000000e+00
3.770000000000000000e+07,0.000000000000000000e+00,0.000000000000000000e+00
4.190000000000000000e+07,0.000000000000000000e+00,0.000000000000000000e+00
4.610000000000000000e+07,0.000000000000000000e+00,0.000000000000000000e+00
5.030000000000000000e+07,0.000000000000000000e+00,0.000000000000000000e+00
5.450000000000000000e+07,0.000000000000000000e+00,0.000000000000000000e+00
5.870000000000000000e+07,0.000000000000000000e+00,0.000000000000000000e+00
