Lag Time [us], Avg. Corr. [-], Std. Dev. Corr. [-]
5.000000000000000000e-01,8.069999999999999396e-01,1.158663022625642906e-02
1.000000000000000000e+00,7.786666666666667291e-01,1.176860229593983120e-02
1.500000000000000000e+00,7.553333333333333011e-01,9.656603957913992634e-03
2.000000000000000000e+00,7.341111111111111587e-01,8.608781046763313086e-03
2.500000000000000000e+00,7.173333333333332673e-01,1.055935604097144737e-02
3.000000000000000000e+00,6.997777777777778319e-01,1.040165585108660841e-02
3.500000000000000000e+00,6.821111111111110015e-01,1.211862661819029102e-02
4.000000000000000000e+00,6.642222222222222694e-01,1.050925518028964119e-02
4.500000000000000000e+00,6.505555555555555536e-01,8.733715004382610128e-03
5.500000000000000000e+00,6.234444444444444677e-01,1.303946999604577682e-02
6.500000000000000000e+00,5.975555555555556175e-01,1.312546295479813038e-02
7.500000000000000000e+00,5.742222222222221895e-01,1.513916921249127377e-02
8.500000000000000000e+00,5.521111111111111081e-01,1.598784260340057120e-02
9.500000000000000000e+00,5.299999999999999156e-01,1.732050807568878692e-02
1.050000000000000000e+01,5.116666666666666030e-01,1.839836949297411414e-02
1.150000000000000000e+01,4.915555555555555234e-01,1.964758961750213279e-02
1.250000000000000000e+01,4.746666666666666812e-01,2.167948338867879687e-02
1.450000000000000000e+01,4.430000000000000049e-01,2.379075450674063633e-02
1.650000000000000000e+01,4.126666666666666261e-01,2.523390576189108239e-02
1.850000000000000000e+01,3.863333333333333619e-01,2.553429066960741928e-02
2.050000000000000000e+01,3.605555555555555181e-01,2.777638885416493578e-02
2.250000000000000000e+01,3.376666666666666705e-01,2.787023501874356241e-02
2.450000000000000000e+01,3.164444444444444726e-01,2.858369776249702551e-02
2.650000000000000000e+01,2.963333333333333375e-01,2.983705749567138951e-02
2.850000000000000000e+01,2.801111111111110885e-01,3.084819461672127366e-02
3.250000000000000000e+01,2.482222222222222330e-01,3.082116877155122517e-02
3.650000000000000000e+01,2.217777777777777681e-01,3.163770605534549363e-02
4.050000000000000000e+01,1.992222222222222172e-01,3.234879355469759410e-02
4.450000000000000000e+01,1.795555555555555516e-01,3.133333333333333109e-02
4.850000000000000000e+01,1.621111111111111225e-01,3.142628058028997667e-02
5.250000000000000000e+01,1.475555555555555509e-01,3.163112040029214533e-02
5.650000000000000000e+01,1.348555555555555896e-01,3.105008498825369972e-02
6.050000000000000000e+01,1.244888888888888989e-01,3.073139455200676537e-02
6.850000000000000000e+01,1.071888888888888891e-01,2.901738463595765136e-02
7.650000000000000000e+01,9.260000000000000175e-02,2.830004416957684205e-02
8.450000000000000000e+01,8.219999999999999529e-02,2.693844835917614394e-02
9.250000000000000000e+01,7.374444444444444580e-02,2.561035489363194806e-02
1.010000000000000000e+02,6.695555555555555982e-02,2.446191484282818351e-02
1.090000000000000000e+02,6.186666666666666009e-02,2.402659984267437043e-02
1.170000000000000000e+02,5.767777777777776532e-02,2.343692480775676559e-02
1.250000000000000000e+02,5.413333333333333885e-02,2.275472478409703778e-02
1.410000000000000000e+02,4.838888888888889100e-02,2.198138101009832271e-02
1.570000000000000000e+02,4.475555555555555537e-02,2.109852548823679813e-02
1.730000000000000000e+02,4.158888888888889052e-02,2.043333333333333460e-02
1.890000000000000000e+02,3.921111111111111325e-02,1.947128940545825998e-02
2.050000000000000000e+02,3.713333333333333763e-02,1.847044937190213398e-02
2.210000000000000000e+02,3.554444444444444795e-02,1.695929767937864180e-02
2.370000000000000000e+02,3.415555555555555706e-02,1.665256069731552852e-02
2.530000000000000000e+02,3.254444444444444529e-02,1.616710480505949635e-02
2.850000000000000000e+02,3.033333333333333021e-02,1.457274853965441833e-02
3.170000000000000000e+02,2.848888888888888998e-02,1.381441226079166418e-02
3.490000000000000000e+02,2.682333333333333444e-02,1.319614716498721148e-02
3.810000000000000000e+02,2.528888888888888506e-02,1.278289232181477331e-02
4.130000000000000000e+02,2.344666666666666774e-02,1.242956053124968756e-02
4.450000000000000000e+02,2.223222222222222266e-02,1.136050150497082759e-02
4.770000000000000000e+02,2.065555555555555201e-02,1.041273272382316380e-02
5.090000000000000000e+02,1.927777777777777563e-02,9.730771780513836761e-03
5.730000000000000000e+02,1.784444444444444403e-02,8.574922902147737169e-03
6.370000000000000000e+02,1.549777777777777699e-02,8.355785088454852072e-03
7.010000000000000000e+02,1.391111111111111194e-02,7.850667876754887850e-03
7.650000000000000000e+02,1.270111111111111094e-02,7.130169080120829679e-03
8.290000000000000000e+02,1.160333333333333355e-02,6.204802575424942651e-03
8.930000000000000000e+02,1.043333333333333439e-02,5.467140477434249794e-03
9.570000000000000000e+02,9.363333333333332884e-03,4.901757337935038969e-03
1.020000000000000000e+03,8.112222222222222057e-03,4.793544559555533262e-03
1.150000000000000000e+03,7.112666666666666443e-03,4.701055652723120336e-03
1.280000000000000000e+03,6.177999999999999464e-03,4.015637309319655679e-03
1.400000000000000000e+03,5.973222222222222648e-03,3.699592672774185999e-03
1.530000000000000000e+03,5.302222222222222059e-03,3.505740926600887410e-03
1.660000000000000000e+03,4.378333333333333903e-03,3.328667375992981972e-03
1.790000000000000000e+03,4.163888888888888848e-03,3.557983222432493670e-03
1.920000000000000000e+03,4.172222222222222131e-03,3.436744708942525602e-03
2.040000000000000000e+03,4.146555555555556105e-03,3.390211170086279441e-03
2.300000000000000000e+03,4.050222222222222418e-03,3.286210651258443353e-03
2.560000000000000000e+03,3.870444444444445017e-03,3.104258651880956697e-03
2.810000000000000000e+03,3.630555555555555706e-03,2.744476776687640018e-03
3.070000000000000000e+03,3.383777777777778085e-03,2.363908510167947452e-03
3.320000000000000000e+03,3.727777777777777340e-03,2.245065576869514044e-03
3.580000000000000000e+03,3.222222222222221807e-03,2.096060458203542233e-03
3.840000000000000000e+03,3.192111111111111711e-03,2.446560669820209248e-03
4.090000000000000000e+03,3.155888888888889066e-03,2.288433331148432334e-03
4.600000000000000000e+03,2.926277777777777644e-03,2.365375354873818555e-03
5.120000000000000000e+03,3.413777777777777730e-03,2.556302494706846114e-03
5.630000000000000000e+03,2.886222222222222314e-03,2.476938875799005943e-03
6.140000000000000000e+03,2.834666666666667192e-03,2.493436534183294737e-03
6.650000000000000000e+03,2.957888888888888807e-03,2.400695547359371369e-03
7.160000000000000000e+03,2.659888888888888719e-03,2.002468067438557646e-03
7.680000000000000000e+03,2.597233333333333165e-03,2.173737251831509010e-03
8.190000000000000000e+03,2.649777777777777808e-03,2.070578710033609167e-03
9.210000000000000000e+03,2.668111111111111117e-03,1.849203777605678200e-03
1.020000000000000000e+04,2.685333333333333409e-03,1.969245286905620465e-03
1.130000000000000000e+04,2.730555555555555514e-03,1.957829098204891174e-03
1.230000000000000000e+04,2.618888888888888482e-03,2.118915137779498609e-03
1.330000000000000000e+04,2.594666666666666562e-03,1.899290327990957620e-03
1.430000000000000000e+04,2.402500000000000122e-03,1.915732953728154679e-03
1.540000000000000000e+04,2.104888888888888782e-03,1.881411999300289153e-03
1.640000000000000000e+04,2.223444444444444990e-03,2.172631130168620629e-03
1.840000000000000000e+04,2.257444444444444732e-03,1.991682900910126709e-03
2.050000000000000000e+04,1.851888888888889029e-03,1.874226403375833057e-03
2.250000000000000000e+04,2.130333333333333471e-03,1.860191455200243572e-03
2.460000000000000000e+04,1.881566666666666630e-03,1.909618539132881430e-03
2.660000000000000000e+04,1.794844444444444439e-03,1.705332685366048578e-03
2.870000000000000000e+04,1.785333333333333217e-03,1.723555917282639264e-03
3.070000000000000000e+04,2.039666666666667058e-03,1.702876243301315162e-03
3.280000000000000000e+04,1.787222222222222164e-03,1.703741014486780852e-03
3.690000000000000000e+04,1.779111111111110867e-03,1.647133225064418118e-03
4.100000000000000000e+04,1.620555555555555638e-03,1.654468578661370858e-03
4.510000000000000000e+04,1.665666666666666858e-03,1.661228762091482855e-03
4.910000000000000000e+04,1.702000000000000171e-03,1.725750923511269698e-03
5.320000000000000000e+04,1.587111111111111188e-03,1.644094465385463047e-03
5.730000000000000000e+04,1.544111111111111118e-03,1.702828048016331777e-03
6.140000000000000000e+04,1.620333333333333218e-03,1.663635852583130728e-03
6.550000000000000000e+04,1.586111111111111055e-03,1.653546298448008590e-03
7.370000000000000000e+04,1.549888888888888844e-03,1.589170337349370219e-03
8.190000000000000000e+04,1.483444444444444350e-03,1.533167074319618161e-03
9.010000000000000000e+04,1.400733333333333518e-03,1.600859172444597063e-03
9.830000000000000000e+04,1.493888888888889000e-03,1.608934076061263423e-03
1.060000000000000000e+05,1.471555555555555377e-03,1.574293024750404680e-03
1.150000000000000000e+05,1.496333333333333022e-03,1.664428655725441091e-03
1.230000000000000000e+05,1.365888888888889142e-03,1.607771084797556373e-03
1.310000000000000000e+05,1.445111111111111206e-03,1.445834831891634363e-03
1.470000000000000000e+05,1.427777777777777379e-03,1.495485688478644061e-03
1.640000000000000000e+05,1.297444444444444600e-03,1.406978510062530325e-03
1.800000000000000000e+05,1.190111111111111187e-03,1.311734104577261728e-03
1.970000000000000000e+05,1.231222222222222093e-03,1.082333910789292503e-03
2.130000000000000000e+05,1.161333333333333445e-03,1.147480065186319434e-03
2.290000000000000000e+05,1.170111111111111135e-03,1.083195093744017878e-03
2.460000000000000000e+05,1.059444444444444453e-03,9.400933612029062619e-04
2.620000000000000000e+05,1.062222222222222213e-03,7.819866971019675444e-04
2.950000000000000000e+05,9.785555555555556454e-04,7.753704132721195947e-04
3.280000000000000000e+05,9.293333333333333350e-04,7.817912125369535278e-04
3.600000000000000000e+05,7.511111111111111417e-04,5.955869887019956538e-04
3.930000000000000000e+05,8.032222222222223148e-04,4.252513309143717219e-04
4.260000000000000000e+05,7.160777777777780229e-04,5.292329160629037329e-04
4.590000000000000000e+05,5.680555555555555879e-04,4.875691261531822271e-04
4.920000000000000000e+05,6.200666666666665959e-04,3.283084525259744035e-04
5.240000000000000000e+05,5.760222222222222133e-04,4.240406282945590518e-04
5.900000000000000000e+05,6.747777777777778322e-04,4.881561680901353503e-04
6.550000000000000000e+05,7.166133333333332169e-04,5.191427314332735382e-04
7.210000000000000000e+05,7.208888888888888595e-04,4.647522039873626712e-04
7.860000000000000000e+05,7.365700000000000849e-04,5.303716848588355169e-04
8.520000000000000000e+05,8.305555555555556259e-04,5.168104369861136697e-04
9.180000000000000000e+05,6.561111111111111093e-04,4.730347356284854247e-04
9.830000000000000000e+05,7.638888888888889289e-04,5.845084354490627347e-04
1.050000000000000000e+06,6.803333333333332457e-04,5.970027219368434371e-04
1.180000000000000000e+06,9.438888888888889673e-04,7.748705447435144970e-04
1.310000000000000000e+06,1.155800000000000013e-03,8.078519728267054235e-04
1.440000000000000000e+06,1.193444444444444240e-03,1.008785669891170637e-03
1.570000000000000000e+06,1.369333333333333296e-03,8.742661208121929942e-04
1.700000000000000000e+06,1.343111111111110895e-03,1.041797058505691299e-03
1.840000000000000000e+06,1.219600000000000154e-03,8.948702364030218081e-04
1.970000000000000000e+06,1.285777777777777613e-03,1.078416753599666838e-03
2.100000000000000000e+06,0.000000000000000000e+00,0.000000000000000000e+00
2.360000000000000000e+06,0.000000000000000000e+00,0.000000000000000000e+00
2.620000000000000000e+06,0.000000000000000000e+00,0.000000000000000000e+00
2.880000000000000000e+06,0.000000000000000000e+00,0.000000000000000000e+00
3.150000000000000000e+06,0.000000000000000000e+00,0.000000000000000000e+00
3.410000000000000000e+06,0.000000000000000000e+00,0.000000000000000000e+00
3.670000000000000000e+06,0.000000000000000000e+00,0.000000000000000000e+00
3.930000000000000000e+06,0.000000000000000000e+00,0.000000000000000000e+00
4.190000000000000000e+06,0.000000000000000000e+00,0.000000000000000000e+00
4.720000000000000000e+06,0.000000000000000000e+00,0.000000000000000000e+00
5.240000000000000000e+06,0.000000000000000000e+00,0.000000000000000000e+00
5.770000000000000000e+06,0.000000000000000000e+00,0.000000000000000000e+00
6.290000000000000000e+06,0.000000000000000000e+00,0.000000000000000000e+00
6.820000000000000000e+06,0.000000000000000000e+00,0.000000000000000000e+00
7.340000000000000000e+06,0.000000000000000000e+00,0.000000000000000000e+00
7.860000000000000000e+06,0.000000000000000000e+00,0.000000000000000000e+00
8.390000000000000000e+06,0.000000000000000000e+00,0.000000000000000000e+00
9.440000000000000000e+06,0.000000000000000000e+00,0.000000000000000000e+00
1.050000000000000000e+07,0.000000000000000000e+00,0.000000000000000000e+00
1.150000000000000000e+07,0.000000000000000000e+00,0.000000000000000000e+00
1.260000000000000000e+07,0.000000000000000000e+00,0.000000000000000000e+00
1.360000000000000000e+07,0.000000000000000000e+00,0.000000000000000000e+00
1.470000000000000000e+07,0.000000000000000000e+00,0.000000000000000000e+00
1.570000000000000000e+07,0.000000000000000000e+00,0.000000000000000000e+00
1.680000000000000000e+07,0.000000000000000000e+00,0.000000000000000000e+00
1.890000000000000000e+07,0.000000000000000000e+00,0.000000000000000000e+00
2.100000000000000000e+07,0.000000000000000000e+00,0.000000000000000000e+00
2.310000000000000000e+07,0.000000000000000000e+00,0.000000000000000000e+00
2.520000000000000000e+07,0.000000000000000000e+00,0.000000000000000000e+00
2.730000000000000000e+07,0.000000000000000000e+00,0.000000000000000000e+00
2.940000000000000000e+07,0.000000000000000000e+00,0.000000000000000000e+00
3.150000000000000000e+07,0.000000000000000000e+00,0.000000000000000000e+00
3.360000000000000000e+07,0.000000000000000000e+00,0.000000000000000000e+00
3.770000000000000000e+07,0.000000000000000000e+00,0.000000000000000000e+00
4.190000000000000000e+07,0.000000000000000000e+00,0.000000000000000000e+00
4.610000000000000000e+07,0.000000000000000000e+00,0.000000000000000000e+00
5.030000000000000000e+07,0.000000000000000000e+00,0.000000000000000000e+00
5.450000000000000000e+07,0.000000000000000000e+00,0.000000000000000000e+00
5.870000000000000000e+07,0.000000000000000000e+00,0.000000000000000000e+00
