Lag Time [us], Avg. Corr. [-], Std. Dev. Corr. [-]
5.000000000000000000e-01,8.024444444444445157e-01,1.480803085416075582e-02
1.000000000000000000e+00,7.795555555555554461e-01,1.523245803466328867e-02
1.500000000000000000e+00,7.586666666666666003e-01,1.644688420339853949e-02
2.000000000000000000e+00,7.389999999999999902e-01,1.531339283111356718e-02
2.500000000000000000e+00,7.229999999999999760e-01,1.570031846810759565e-02
3.000000000000000000e+00,7.077777777777778390e-01,1.676885340279543612e-02
3.500000000000000000e+00,6.919999999999999485e-01,1.841874045639383534e-02
4.000000000000000000e+00,6.777777777777778123e-01,1.589636576216222827e-02
4.500000000000000000e+00,6.641111111111110965e-01,1.815519515486164331e-02
5.500000000000000000e+00,6.389999999999999014e-01,1.873499399519520936e-02
6.500000000000000000e+00,6.166666666666666963e-01,1.917028951268083189e-02
7.500000000000000000e+00,5.942222222222222072e-01,2.156257045077057330e-02
8.500000000000000000e+00,5.739999999999999547e-01,2.108316864230798740e-02
9.500000000000000000e+00,5.558888888888888768e-01,2.288255036290993624e-02
1.050000000000000000e+01,5.373333333333333295e-01,2.311384866265242533e-02
1.150000000000000000e+01,5.200000000000000178e-01,2.396872962841378740e-02
1.250000000000000000e+01,5.045555555555556460e-01,2.381234507094542527e-02
1.450000000000000000e+01,4.743333333333333290e-01,2.584569596664016908e-02
1.650000000000000000e+01,4.467777777777777737e-01,2.562605011398448943e-02
1.850000000000000000e+01,4.203333333333333921e-01,2.644333564435470338e-02
2.050000000000000000e+01,3.974444444444443780e-01,2.735009648571239474e-02
2.250000000000000000e+01,3.755555555555555869e-01,2.764557428916566278e-02
2.450000000000000000e+01,3.548888888888888649e-01,2.867248003070385284e-02
2.650000000000000000e+01,3.361111111111110827e-01,2.851948651555828718e-02
2.850000000000000000e+01,3.192222222222222405e-01,2.827886922146011922e-02
3.250000000000000000e+01,2.888888888888889728e-01,2.933617410486771479e-02
3.650000000000000000e+01,2.617777777777777759e-01,2.878705341719509786e-02
4.050000000000000000e+01,2.390000000000000180e-01,2.875326068465976215e-02
4.450000000000000000e+01,2.186666666666666758e-01,2.814693589007513999e-02
4.850000000000000000e+01,2.014444444444444260e-01,2.743679605525721141e-02
5.250000000000000000e+01,1.861111111111111160e-01,2.765612248872048942e-02
5.650000000000000000e+01,1.722222222222222210e-01,2.748989713411901029e-02
6.050000000000000000e+01,1.607777777777777972e-01,2.730282850630030497e-02
6.850000000000000000e+01,1.415555555555555456e-01,2.639181270352185596e-02
7.650000000000000000e+01,1.262777777777777666e-01,2.564379933715837945e-02
8.450000000000000000e+01,1.137555555555555542e-01,2.461016614689502321e-02
9.250000000000000000e+01,1.038444444444444476e-01,2.379853520235600262e-02
1.010000000000000000e+02,9.576666666666666661e-02,2.365486207949646716e-02
1.090000000000000000e+02,8.931111111111110501e-02,2.232747435584936727e-02
1.170000000000000000e+02,8.357777777777779249e-02,2.230973878028258070e-02
1.250000000000000000e+02,7.939999999999999836e-02,2.176309950351741282e-02
1.410000000000000000e+02,7.174444444444444402e-02,2.013331263795845733e-02
1.570000000000000000e+02,6.601111111111111762e-02,1.880142577335855089e-02
1.730000000000000000e+02,6.163333333333333164e-02,1.845020325091298319e-02
1.890000000000000000e+02,5.815555555555555062e-02,1.748664569829724846e-02
2.050000000000000000e+02,5.493333333333333401e-02,1.675134322972340190e-02
2.210000000000000000e+02,5.262222222222222301e-02,1.645302234984333950e-02
2.370000000000000000e+02,5.012222222222222773e-02,1.600107635268466569e-02
2.530000000000000000e+02,4.831111111111111023e-02,1.566951215293925850e-02
2.850000000000000000e+02,4.445555555555556065e-02,1.467549923436261769e-02
3.170000000000000000e+02,4.063333333333332686e-02,1.398329360343978506e-02
3.490000000000000000e+02,3.704444444444444234e-02,1.248770506449354591e-02
3.810000000000000000e+02,3.382222222222222574e-02,1.181987497583813010e-02
4.130000000000000000e+02,3.168888888888889144e-02,1.113827235755667465e-02
4.450000000000000000e+02,2.958888888888888680e-02,1.076237014375138086e-02
4.770000000000000000e+02,2.737777777777777866e-02,1.003067517390750923e-02
5.090000000000000000e+02,2.545555555555555419e-02,9.295309450350633385e-03
5.730000000000000000e+02,2.160111111111110913e-02,8.093346718824735372e-03
6.370000000000000000e+02,1.853999999999999745e-02,6.750881423932729442e-03
7.010000000000000000e+02,1.543333333333333016e-02,5.897811034612757304e-03
7.650000000000000000e+02,1.313777777777777774e-02,5.308243065689856148e-03
8.290000000000000000e+02,1.161888888888889040e-02,4.939371023836043074e-03
8.930000000000000000e+02,1.021444444444444440e-02,4.337413143542794003e-03
9.570000000000000000e+02,9.002222222222222223e-03,3.734195956888770960e-03
1.020000000000000000e+03,7.734444444444443095e-03,3.594374462653798091e-03
1.150000000000000000e+03,6.625555555555554671e-03,3.230724033057880140e-03
1.280000000000000000e+03,5.337777777777778093e-03,2.903410829428802048e-03
1.400000000000000000e+03,4.619999999999999975e-03,2.732338741810758607e-03
1.530000000000000000e+03,3.760888888888888268e-03,2.683784102924657768e-03
1.660000000000000000e+03,3.464215444444444011e-03,2.656235401653396153e-03
1.790000000000000000e+03,3.270666666666666514e-03,2.131874058193869610e-03
1.920000000000000000e+03,2.697333333333333701e-03,2.066764137486423302e-03
2.040000000000000000e+03,2.643688888888889085e-03,1.997081901452995092e-03
2.300000000000000000e+03,2.307888888888888837e-03,1.784251695000206844e-03
2.560000000000000000e+03,2.103888888888889083e-03,1.471297849217183653e-03
2.810000000000000000e+03,2.401333333333333445e-03,1.299049363958121707e-03
3.070000000000000000e+03,2.435888888888888479e-03,1.485635255071415936e-03
3.320000000000000000e+03,2.067333333333333349e-03,1.156839552401282487e-03
3.580000000000000000e+03,1.955666666666666317e-03,1.503049067728662097e-03
3.840000000000000000e+03,2.040222222222222350e-03,1.523069825859748585e-03
4.090000000000000000e+03,1.777666666666666544e-03,1.283991627698561049e-03
4.600000000000000000e+03,1.826111111111110817e-03,1.086680431916905044e-03
5.120000000000000000e+03,1.917888888888889115e-03,1.214080973869169529e-03
5.630000000000000000e+03,2.034333333333333306e-03,8.757819363289014126e-04
6.140000000000000000e+03,1.967222222222222636e-03,1.231362535748284012e-03
6.650000000000000000e+03,1.891777777777777815e-03,8.465095654772274983e-04
7.160000000000000000e+03,1.468666666666666515e-03,7.252882185724514102e-04
7.680000000000000000e+03,2.017444444444444537e-03,1.015786039369402779e-03
8.190000000000000000e+03,1.596999999999999895e-03,1.037650952873845787e-03
9.210000000000000000e+03,1.602999999999999607e-03,1.184852100474991735e-03
1.020000000000000000e+04,2.066666666666667172e-03,1.402158425428453670e-03
1.130000000000000000e+04,1.676888888888888787e-03,1.016128983501165097e-03
1.230000000000000000e+04,1.974666666666666671e-03,1.385678894982528189e-03
1.330000000000000000e+04,1.882555555555555935e-03,1.217734896345578754e-03
1.430000000000000000e+04,1.553222222222222114e-03,8.995964064203706761e-04
1.540000000000000000e+04,1.425888888888888865e-03,1.224172214645925967e-03
1.640000000000000000e+04,1.672333333333333397e-03,9.575372055434712990e-04
1.840000000000000000e+04,1.798333333333333424e-03,1.077363216375981604e-03
2.050000000000000000e+04,1.333077777777777516e-03,1.167447302641298800e-03
2.250000000000000000e+04,1.466666666666666900e-03,1.061839794884331936e-03
2.460000000000000000e+04,1.392888888888888822e-03,1.241708545155066059e-03
2.660000000000000000e+04,1.543777777777777813e-03,1.619092552772831558e-03
2.870000000000000000e+04,1.520222222222222287e-03,1.310586393353923304e-03
3.070000000000000000e+04,1.835555555555555551e-03,1.739888079095255500e-03
3.280000000000000000e+04,1.557999999999999923e-03,1.152013780299524122e-03
3.690000000000000000e+04,1.602555555555555634e-03,1.119752105502721477e-03
4.100000000000000000e+04,1.312444444444444639e-03,1.012760597465056298e-03
4.510000000000000000e+04,1.137999999999999689e-03,8.879041333387292876e-04
4.910000000000000000e+04,1.413888888888889007e-03,1.061330467437504154e-03
5.320000000000000000e+04,1.342777777777777806e-03,1.030419547778692064e-03
5.730000000000000000e+04,1.293044444444444059e-03,1.268132176777238837e-03
6.140000000000000000e+04,1.502555555555555589e-03,1.184517635064070290e-03
6.550000000000000000e+04,1.399555555555555362e-03,9.684996271438505756e-04
7.370000000000000000e+04,1.366555555555555536e-03,1.185378115951942878e-03
8.190000000000000000e+04,1.327888888888889085e-03,1.197390438040621353e-03
9.010000000000000000e+04,1.396000000000000105e-03,1.156995678470753826e-03
9.830000000000000000e+04,1.216333333333333155e-03,1.089700302835600650e-03
1.060000000000000000e+05,1.123444444444444273e-03,9.472415361341465518e-04
1.150000000000000000e+05,1.106222222222222416e-03,9.797010740243395320e-04
1.230000000000000000e+05,1.308222222222222121e-03,1.030295925666235152e-03
1.310000000000000000e+05,1.182333333333333413e-03,1.178651984259985108e-03
1.470000000000000000e+05,1.218666666666666292e-03,1.283980821507860106e-03
1.640000000000000000e+05,1.016333333333333498e-03,1.167158194076535612e-03
1.800000000000000000e+05,1.043666666666666701e-03,1.031505089662673605e-03
1.970000000000000000e+05,1.176555555555555471e-03,1.422318978913583330e-03
2.130000000000000000e+05,1.049777777777777732e-03,1.286619094543697437e-03
2.290000000000000000e+05,9.439999999999999607e-04,1.359944759907548645e-03
2.460000000000000000e+05,1.221333333333333602e-03,1.828000068380742455e-03
2.620000000000000000e+05,1.201444444444444435e-03,1.939496913577791297e-03
2.950000000000000000e+05,1.373111111111111190e-03,2.020464887373970338e-03
3.280000000000000000e+05,1.263122222222222380e-03,1.898303949436033972e-03
3.600000000000000000e+05,1.314888888888888878e-03,2.190693294624126812e-03
3.930000000000000000e+05,1.413333333333333282e-03,2.167490196056259116e-03
4.260000000000000000e+05,1.388777777777777840e-03,1.994317663875152125e-03
4.590000000000000000e+05,1.338999999999999913e-03,2.127587718520672442e-03
4.920000000000000000e+05,1.223222222222222332e-03,1.875931420506742227e-03
5.240000000000000000e+05,1.417866666666666581e-03,2.335913485127392476e-03
5.900000000000000000e+05,1.432177777777777919e-03,2.134926845220801433e-03
6.550000000000000000e+05,1.441211111111111382e-03,2.380809694434040877e-03
7.210000000000000000e+05,1.360666666666667142e-03,2.146154176661126643e-03
7.860000000000000000e+05,1.120777777777777831e-03,1.537452582827985876e-03
8.520000000000000000e+05,9.815555555555558268e-04,1.595355219936230593e-03
9.180000000000000000e+05,1.253666666666666601e-03,1.865951432915658641e-03
9.830000000000000000e+05,1.124433333333333361e-03,1.577405992444557781e-03
1.050000000000000000e+06,8.843333333333334339e-04,1.297652977494368485e-03
1.180000000000000000e+06,1.235444444444444611e-03,1.867044262404557496e-03
1.310000000000000000e+06,1.121555555555555543e-03,1.702513370807341980e-03
1.440000000000000000e+06,1.164055555555555330e-03,1.984226911867132976e-03
1.570000000000000000e+06,1.185555555555555364e-03,2.198603312964341437e-03
1.700000000000000000e+06,1.376244444444444347e-03,2.235283390932294584e-03
1.840000000000000000e+06,1.262477777777777643e-03,2.366173177188103660e-03
1.970000000000000000e+06,1.398666666666666981e-03,2.778952275588769585e-03
2.100000000000000000e+06,0.000000000000000000e+00,0.000000000000000000e+00
2.360000000000000000e+06,0.000000000000000000e+00,0.000000000000000000e+00
2.620000000000000000e+06,0.000000000000000000e+00,0.000000000000000000e+00
2.880000000000000000e+06,0.000000000000000000e+00,0.000000000000000000e+00
3.150000000000000000e+06,0.000000000000000000e+00,0.000000000000000000e+00
3.410000000000000000e+06,0.000000000000000000e+00,0.000000000000000000e+00
3.670000000000000000e+06,0.000000000000000000e+00,0.000000000000000000e+00
3.930000000000000000e+06,0.000000000000000000e+00,0.000000000000000000e+00
4.190000000000000000e+06,0.000000000000000000e+00,0.000000000000000000e+00
4.720000000000000000e+06,0.000000000000000000e+00,0.000000000000000000e+00
5.240000000000000000e+06,0.000000000000000000e+00,0.000000000000000000e+00
5.770000000000000000e+06,0.000000000000000000e+00,0.000000000000000000e+00
6.290000000000000000e+06,0.000000000000000000e+00,0.000000000000000000e+00
6.820000000000000000e+06,0.000000000000000000e+00,0.000000000000000000e+00
7.340000000000000000e+06,0.000000000000000000e+00,0.000000000000000000e+00
7.860000000000000000e+06,0.000000000000000000e+00,0.000000000000000000e+00
8.390000000000000000e+06,0.000000000000000000e+00,0.000000000000000000e+00
9.440000000000000000e+06,0.000000000000000000e+00,0.000000000000000000e+00
1.050000000000000000e+07,0.000000000000000000e+00,0.000000000000000000e+00
1.150000000000000000e+07,0.000000000000000000e+00,0.000000000000000000e+00
1.260000000000000000e+07,0.000000000000000000e+00,0.000000000000000000e+00
1.360000000000000000e+07,0.000000000000000000e+00,0.000000000000000000e+00
1.470000000000000000e+07,0.000000000000000000e+00,0.000000000000000000e+00
1.570000000000000000e+07,0.000000000000000000e+00,0.000000000000000000e+00
1.680000000000000000e+07,0.000000000000000000e+00,0.000000000000000000e+00
1.890000000000000000e+07,0.000000000000000000e+00,0.000000000000000000e+00
2.100000000000000000e+07,0.000000000000000000e+00,0.000000000000000000e+00
2.310000000000000000e+07,0.000000000000000000e+00,0.000000000000000000e+00
2.520000000000000000e+07,0.000000000000000000e+00,0.000000000000000000e+00
2.730000000000000000e+07,0.000000000000000000e+00,0.000000000000000000e+00
2.940000000000000000e+07,0.000000000000000000e+00,0.000000000000000000e+00
3.150000000000000000e+07,0.000000000000000000e+00,0.000000000000000000e+00
3.360000000000000000e+07,0.000000000000000000e+00,0.000000000000000000e+00
3.770000000000000000e+07,0.000000000000000000e+00,0.000000000000000000e+00
4.190000000000000000e+07,0.000000000000000000e+00,0.000000000000000000e+00
4.610000000000000000e+07,0.000000000000000000e+00,0.000000000000000000e+00
5.030000000000000000e+07,0.000000000000000000e+00,0.000000000000000000e+00
5.450000000000000000e+07,0.000000000000000000e+00,0.000000000000000000e+00
5.870000000000000000e+07,0.000000000000000000e+00,0.000000000000000000e+00
