Lag Time [us], Avg. Corr. [-], Std. Dev. Corr. [-]
5.000000000000000000e-01,7.935555555555555696e-01,2.371239713267677199e-02
1.000000000000000000e+00,7.918888888888888644e-01,2.006517159435998454e-02
1.500000000000000000e+00,7.854444444444445006e-01,1.784734651923858273e-02
2.000000000000000000e+00,7.787777777777777910e-01,1.700571799261780398e-02
2.500000000000000000e+00,7.749999999999999112e-01,1.736375535418535274e-02
3.000000000000000000e+00,7.712222222222222534e-01,1.636900865796230703e-02
3.500000000000000000e+00,7.644444444444444819e-01,1.542004467496051710e-02
4.000000000000000000e+00,7.610000000000000098e-01,1.624038176891173108e-02
4.500000000000000000e+00,7.575555555555555376e-01,1.727072024490520011e-02
5.500000000000000000e+00,7.496666666666667034e-01,1.987460691435180907e-02
6.500000000000000000e+00,7.413333333333332886e-01,2.376972864800944163e-02
7.500000000000000000e+00,7.336666666666666892e-01,2.673013280924734295e-02
8.500000000000000000e+00,7.258888888888888058e-01,3.072232268418375115e-02
9.500000000000000000e+00,7.186666666666665648e-01,3.381198012539342324e-02
1.050000000000000000e+01,7.117777777777776205e-01,3.777491819242555227e-02
1.150000000000000000e+01,7.066666666666666652e-01,4.123711920103050738e-02
1.250000000000000000e+01,6.992222222222221895e-01,4.483797993269147270e-02
1.450000000000000000e+01,6.873333333333332407e-01,5.202643558807387714e-02
1.650000000000000000e+01,6.759999999999999343e-01,5.837593682331787548e-02
1.850000000000000000e+01,6.651111111111110974e-01,6.451055038605012226e-02
2.050000000000000000e+01,6.553333333333334343e-01,6.970294111441784068e-02
2.250000000000000000e+01,6.457777777777778949e-01,7.576572077426864393e-02
2.450000000000000000e+01,6.371111111111111835e-01,8.096981604963116030e-02
2.650000000000000000e+01,6.286666666666665959e-01,8.552923476800197711e-02
2.850000000000000000e+01,6.207777777777778727e-01,8.977440862765090346e-02
3.250000000000000000e+01,6.056666666666665755e-01,9.808669634563087214e-02
3.650000000000000000e+01,5.934444444444443301e-01,1.054503569352791548e-01
4.050000000000000000e+01,5.814444444444444304e-01,1.117039738674402566e-01
4.450000000000000000e+01,5.710000000000000631e-01,1.175840125187093549e-01
4.850000000000000000e+01,5.613333333333334618e-01,1.226019983523922857e-01
5.250000000000000000e+01,5.527777777777777013e-01,1.272367653017179023e-01
5.650000000000000000e+01,5.445555555555555705e-01,1.309733857612979668e-01
6.050000000000000000e+01,5.378888888888888609e-01,1.345357242932564423e-01
6.850000000000000000e+01,5.252222222222221459e-01,1.404597609439957595e-01
7.650000000000000000e+01,5.153333333333333099e-01,1.449172177486167390e-01
8.450000000000000000e+01,5.063333333333334130e-01,1.487909607469485862e-01
9.250000000000000000e+01,4.996666666666666479e-01,1.517135458685215654e-01
1.010000000000000000e+02,4.933333333333332904e-01,1.542870700998628664e-01
1.090000000000000000e+02,4.876666666666666927e-01,1.561593737180064223e-01
1.170000000000000000e+02,4.832222222222222197e-01,1.576307217659186355e-01
1.250000000000000000e+02,4.791111111111111542e-01,1.590828749775132778e-01
1.410000000000000000e+02,4.713333333333333264e-01,1.608088927889251007e-01
1.570000000000000000e+02,4.654444444444444384e-01,1.615697303883923130e-01
1.730000000000000000e+02,4.608888888888889590e-01,1.623110012017396075e-01
1.890000000000000000e+02,4.558888888888888435e-01,1.626064608529166622e-01
2.050000000000000000e+02,4.514444444444444260e-01,1.626338764765132561e-01
2.210000000000000000e+02,4.474444444444444779e-01,1.625123926898431326e-01
2.370000000000000000e+02,4.440000000000000613e-01,1.622089701588663724e-01
2.530000000000000000e+02,4.404444444444444162e-01,1.619198189777205088e-01
2.850000000000000000e+02,4.341111111111111143e-01,1.604652956595634394e-01
3.170000000000000000e+02,4.268888888888888733e-01,1.593411783284882921e-01
3.490000000000000000e+02,4.198888888888889226e-01,1.583125424946207616e-01
3.810000000000000000e+02,4.138888888888889173e-01,1.570321976892354032e-01
4.130000000000000000e+02,4.071111111111111458e-01,1.555807221705539922e-01
4.450000000000000000e+02,4.004444444444443807e-01,1.543041729110971594e-01
4.770000000000000000e+02,3.937777777777777821e-01,1.531419094971864514e-01
5.090000000000000000e+02,3.873333333333333628e-01,1.515206256586871247e-01
5.730000000000000000e+02,3.745555555555555305e-01,1.484377909353873926e-01
6.370000000000000000e+02,3.618888888888889266e-01,1.452561913004437599e-01
7.010000000000000000e+02,3.497777777777778541e-01,1.420746087252906797e-01
7.650000000000000000e+02,3.380000000000000226e-01,1.387218439900508304e-01
8.290000000000000000e+02,3.265555555555555434e-01,1.351009910318121121e-01
8.930000000000000000e+02,3.155555555555555336e-01,1.313269880023819614e-01
9.570000000000000000e+02,3.048888888888888760e-01,1.277120241446008664e-01
1.020000000000000000e+03,2.948888888888888116e-01,1.244572662045535655e-01
1.150000000000000000e+03,2.747777777777777874e-01,1.178821209702491102e-01
1.280000000000000000e+03,2.560000000000000053e-01,1.118816338815267764e-01
1.400000000000000000e+03,2.403333333333333710e-01,1.057177846911294267e-01
1.530000000000000000e+03,2.258888888888888891e-01,1.003536801074634693e-01
1.660000000000000000e+03,2.129999999999999671e-01,9.568307060290237587e-02
1.790000000000000000e+03,2.011555555555555597e-01,9.132850200117034745e-02
1.920000000000000000e+03,1.904222222222222149e-01,8.710633986366574100e-02
2.040000000000000000e+03,1.806888888888888711e-01,8.395422032936231127e-02
2.300000000000000000e+03,1.637222222222222412e-01,7.796409073698253034e-02
2.560000000000000000e+03,1.490666666666666251e-01,7.321181598621906428e-02
2.810000000000000000e+03,1.363777777777777644e-01,6.901747564526281020e-02
3.070000000000000000e+03,1.252222222222222070e-01,6.557893674377805737e-02
3.320000000000000000e+03,1.157222222222222263e-01,6.247771158136670999e-02
3.580000000000000000e+03,1.067888888888888915e-01,5.928464060033686311e-02
3.840000000000000000e+03,9.881111111111111345e-02,5.590047952487627037e-02
4.090000000000000000e+03,9.187777777777778043e-02,5.280053924387936859e-02
4.600000000000000000e+03,7.915555555555554845e-02,4.670329514903394375e-02
5.120000000000000000e+03,6.795555555555556071e-02,4.149214115682364062e-02
5.630000000000000000e+03,5.934444444444443578e-02,3.731575106811838016e-02
6.140000000000000000e+03,5.232222222222222829e-02,3.431318178840959965e-02
6.650000000000000000e+03,4.648888888888887821e-02,3.182940638954975809e-02
7.160000000000000000e+03,4.250555555555554643e-02,3.018387860725950389e-02
7.680000000000000000e+03,3.903888888888888686e-02,2.916888001125705204e-02
8.190000000000000000e+03,3.571777777777777885e-02,2.785829758697477496e-02
9.210000000000000000e+03,3.024333333333333734e-02,2.435573956996584660e-02
1.020000000000000000e+04,2.582333333333333356e-02,2.093459457453141284e-02
1.130000000000000000e+04,2.260711111111111254e-02,1.800826643825304690e-02
1.230000000000000000e+04,2.012666666666666770e-02,1.532517781299779815e-02
1.330000000000000000e+04,1.809333333333333627e-02,1.463367007964851141e-02
1.430000000000000000e+04,1.632777777777777786e-02,1.356754010292375925e-02
1.540000000000000000e+04,1.528644444444444798e-02,1.220492846262434018e-02
1.640000000000000000e+04,1.321777777777777968e-02,1.022801639832692303e-02
1.840000000000000000e+04,1.106711111111111090e-02,9.118749920417333274e-03
2.050000000000000000e+04,1.053444444444444350e-02,8.105350256329319630e-03
2.250000000000000000e+04,9.620222222222222716e-03,8.307043122823213471e-03
2.460000000000000000e+04,1.016555555555555615e-02,7.746589751482763075e-03
2.660000000000000000e+04,1.011888888888888907e-02,7.435819464666360706e-03
2.870000000000000000e+04,1.004155555555555530e-02,7.672711826843085781e-03
3.070000000000000000e+04,9.993333333333334970e-03,7.805028827621330288e-03
3.280000000000000000e+04,8.611111111111111049e-03,7.086595523318028021e-03
3.690000000000000000e+04,9.242222222222222852e-03,7.984188715482898324e-03
4.100000000000000000e+04,9.132222222222223865e-03,7.964610438963379974e-03
4.510000000000000000e+04,8.948888888888888171e-03,6.970718120187554233e-03
4.910000000000000000e+04,7.770000000000000864e-03,7.350525491418962928e-03
5.320000000000000000e+04,9.145555555555554342e-03,7.187485845396689686e-03
5.730000000000000000e+04,1.136855555555555536e-02,8.951734260900385751e-03
6.140000000000000000e+04,1.010444444444444367e-02,8.476809705176693160e-03
6.550000000000000000e+04,9.573333333333333001e-03,7.588247492010260012e-03
7.370000000000000000e+04,7.753333333333332564e-03,5.806836488140509032e-03
8.190000000000000000e+04,1.038000000000000034e-02,6.135981991498997042e-03
9.010000000000000000e+04,7.272222222222221588e-03,3.999477396416242260e-03
9.830000000000000000e+04,7.528888888888887049e-03,4.952578733459076475e-03
1.060000000000000000e+05,9.799999999999999684e-03,6.015881065978615633e-03
1.150000000000000000e+05,6.868888888888888787e-03,5.487010671678260385e-03
1.230000000000000000e+05,5.093333333333332526e-03,2.644688072344260430e-03
1.310000000000000000e+05,4.332111111111111232e-03,3.749675000731544656e-03
1.470000000000000000e+05,4.162222222222221671e-03,2.925405005199185546e-03
1.640000000000000000e+05,4.081111111111110010e-03,4.151235823355632452e-03
1.800000000000000000e+05,4.893888888888888594e-03,4.209541080819988526e-03
1.970000000000000000e+05,4.587777777777777427e-03,4.286661806632807194e-03
2.130000000000000000e+05,5.475999999999999097e-03,4.244599392168831205e-03
2.290000000000000000e+05,4.983888888888889264e-03,4.790111649127931637e-03
2.460000000000000000e+05,3.329888888888889176e-03,3.771160877118756929e-03
2.620000000000000000e+05,4.820888888888888446e-03,6.182965701110682867e-03
2.950000000000000000e+05,3.813255555555555322e-03,3.497255454320970496e-03
3.280000000000000000e+05,4.655999999999999549e-03,3.922555162136028006e-03
3.600000000000000000e+05,4.858888888888888286e-03,5.054442685510551238e-03
3.930000000000000000e+05,5.299888888888888705e-03,5.266576460197944232e-03
4.260000000000000000e+05,4.253999999999999101e-03,4.785238134095313664e-03
4.590000000000000000e+05,4.682666666666666574e-03,5.661062002840101977e-03
4.920000000000000000e+05,5.267777777777777476e-03,6.438242729537652781e-03
5.240000000000000000e+05,4.631555555555556293e-03,4.473126063255738333e-03
5.900000000000000000e+05,2.548444444444444325e-03,2.658494033805187777e-03
6.550000000000000000e+05,3.118244444444443972e-03,3.176319920564957527e-03
7.210000000000000000e+05,3.165902222222222347e-03,3.423311140700541991e-03
7.860000000000000000e+05,3.736566666666666942e-03,3.932340628048389651e-03
8.520000000000000000e+05,4.451111111111110547e-03,4.727529599178740757e-03
9.180000000000000000e+05,3.223044444444444784e-03,4.435003632216976549e-03
9.830000000000000000e+05,2.657000000000000507e-03,2.375935815631390578e-03
1.050000000000000000e+06,4.029999999999999728e-03,3.967861514720492401e-03
1.180000000000000000e+06,2.863777777777778023e-03,2.612333955382512788e-03
1.310000000000000000e+06,3.313555555555555698e-03,2.495997551636975481e-03
1.440000000000000000e+06,3.202000000000000419e-03,2.764486932506644845e-03
1.570000000000000000e+06,2.033222222222222288e-03,1.387353936255793620e-03
1.700000000000000000e+06,3.209999999999999746e-03,4.059467329588945309e-03
1.840000000000000000e+06,2.981444444444445417e-03,3.709091974833972089e-03
1.970000000000000000e+06,3.038888888888888716e-03,3.185817965783844033e-03
2.100000000000000000e+06,0.000000000000000000e+00,0.000000000000000000e+00
2.360000000000000000e+06,0.000000000000000000e+00,0.000000000000000000e+00
2.620000000000000000e+06,0.000000000000000000e+00,0.000000000000000000e+00
2.880000000000000000e+06,0.000000000000000000e+00,0.000000000000000000e+00
3.150000000000000000e+06,0.000000000000000000e+00,0.000000000000000000e+00
3.410000000000000000e+06,0.000000000000000000e+00,0.000000000000000000e+00
3.670000000000000000e+06,0.000000000000000000e+00,0.000000000000000000e+00
3.930000000000000000e+06,0.000000000000000000e+00,0.000000000000000000e+00
4.190000000000000000e+06,0.000000000000000000e+00,0.000000000000000000e+00
4.720000000000000000e+06,0.000000000000000000e+00,0.000000000000000000e+00
5.240000000000000000e+06,0.000000000000000000e+00,0.000000000000000000e+00
5.770000000000000000e+06,0.000000000000000000e+00,0.000000000000000000e+00
6.290000000000000000e+06,0.000000000000000000e+00,0.000000000000000000e+00
6.820000000000000000e+06,0.000000000000000000e+00,0.000000000000000000e+00
7.340000000000000000e+06,0.000000000000000000e+00,0.000000000000000000e+00
7.860000000000000000e+06,0.000000000000000000e+00,0.000000000000000000e+00
8.390000000000000000e+06,0.000000000000000000e+00,0.000000000000000000e+00
9.440000000000000000e+06,0.000000000000000000e+00,0.000000000000000000e+00
1.050000000000000000e+07,0.000000000000000000e+00,0.000000000000000000e+00
1.150000000000000000e+07,0.000000000000000000e+00,0.000000000000000000e+00
1.260000000000000000e+07,0.000000000000000000e+00,0.000000000000000000e+00
1.360000000000000000e+07,0.000000000000000000e+00,0.000000000000000000e+00
1.470000000000000000e+07,0.000000000000000000e+00,0.000000000000000000e+00
1.570000000000000000e+07,0.000000000000000000e+00,0.000000000000000000e+00
1.680000000000000000e+07,0.000000000000000000e+00,0.000000000000000000e+00
1.890000000000000000e+07,0.000000000000000000e+00,0.000000000000000000e+00
2.100000000000000000e+07,0.000000000000000000e+00,0.000000000000000000e+00
2.310000000000000000e+07,0.000000000000000000e+00,0.000000000000000000e+00
2.520000000000000000e+07,0.000000000000000000e+00,0.000000000000000000e+00
2.730000000000000000e+07,0.000000000000000000e+00,0.000000000000000000e+00
2.940000000000000000e+07,0.000000000000000000e+00,0.000000000000000000e+00
3.150000000000000000e+07,0.000000000000000000e+00,0.000000000000000000e+00
3.360000000000000000e+07,0.000000000000000000e+00,0.000000000000000000e+00
3.770000000000000000e+07,0.000000000000000000e+00,0.000000000000000000e+00
4.190000000000000000e+07,0.000000000000000000e+00,0.000000000000000000e+00
4.610000000000000000e+07,0.000000000000000000e+00,0.000000000000000000e+00
5.030000000000000000e+07,0.000000000000000000e+00,0.000000000000000000e+00
5.450000000000000000e+07,0.000000000000000000e+00,0.000000000000000000e+00
5.870000000000000000e+07,0.000000000000000000e+00,0.000000000000000000e+00
