Lag Time [us], Avg. Corr. [-], Std. Dev. Corr. [-]
5.000000000000000000e-01,8.407777777777777350e-01,1.150845100108805440e-02
1.000000000000000000e+00,8.177777777777777146e-01,1.769730048466271882e-02
1.500000000000000000e+00,8.008888888888887614e-01,1.932902250790530241e-02
2.000000000000000000e+00,7.816666666666667318e-01,2.244437568746343939e-02
2.500000000000000000e+00,7.694444444444443754e-01,2.616825897490658581e-02
3.000000000000000000e+00,7.574444444444444757e-01,2.773585725694771575e-02
3.500000000000000000e+00,7.434444444444444633e-01,3.171399971271014750e-02
4.000000000000000000e+00,7.290000000000000924e-01,3.333541660156660175e-02
4.500000000000000000e+00,7.192222222222222072e-01,3.463660555603628038e-02
5.500000000000000000e+00,6.971111111111111258e-01,3.931426091269057260e-02
6.500000000000000000e+00,6.784444444444442945e-01,4.278466755483530809e-02
7.500000000000000000e+00,6.585555555555554497e-01,4.656208519576605920e-02
8.500000000000000000e+00,6.398888888888889515e-01,4.954150897087321315e-02
9.500000000000000000e+00,6.235555555555555296e-01,5.266666666666668106e-02
1.050000000000000000e+01,6.084444444444444544e-01,5.563072692116990958e-02
1.150000000000000000e+01,5.928888888888887987e-01,5.845606137186383500e-02
1.250000000000000000e+01,5.779999999999999583e-01,6.137589103222861053e-02
1.450000000000000000e+01,5.511111111111111072e-01,6.435535029126260298e-02
1.650000000000000000e+01,5.255555555555555536e-01,6.866241896247013421e-02
1.850000000000000000e+01,5.002222222222222348e-01,7.230452575354079370e-02
2.050000000000000000e+01,4.792222222222222161e-01,7.402326961465863220e-02
2.250000000000000000e+01,4.597777777777777852e-01,7.744639723347010452e-02
2.450000000000000000e+01,4.407777777777777128e-01,7.925240970749374003e-02
2.650000000000000000e+01,4.231111111111111045e-01,8.156813784261053579e-02
2.850000000000000000e+01,4.057777777777777373e-01,8.276137048432949395e-02
3.250000000000000000e+01,3.756666666666667043e-01,8.482776668049205049e-02
3.650000000000000000e+01,3.487777777777776866e-01,8.670175571719666852e-02
4.050000000000000000e+01,3.252222222222223014e-01,8.689617048204392735e-02
4.450000000000000000e+01,3.047777777777778141e-01,8.721636569156297758e-02
4.850000000000000000e+01,2.858888888888888591e-01,8.729181583121702059e-02
5.250000000000000000e+01,2.696666666666666101e-01,8.715073149434833522e-02
5.650000000000000000e+01,2.551111111111110663e-01,8.673298744486501732e-02
6.050000000000000000e+01,2.413333333333333441e-01,8.552046538694699218e-02
6.850000000000000000e+01,2.179999999999999993e-01,8.330666239863412925e-02
7.650000000000000000e+01,1.987777777777778032e-01,8.112456128968861813e-02
8.450000000000000000e+01,1.830444444444444541e-01,7.862849532947821518e-02
9.250000000000000000e+01,1.697555555555555484e-01,7.627173642823256716e-02
1.010000000000000000e+02,1.579999999999999738e-01,7.397344117992618595e-02
1.090000000000000000e+02,1.479111111111111321e-01,7.108945850905823427e-02
1.170000000000000000e+02,1.396999999999999909e-01,6.796377711693192547e-02
1.250000000000000000e+02,1.319777777777777772e-01,6.555113991720086519e-02
1.410000000000000000e+02,1.187555555555555586e-01,6.083533330045769877e-02
1.570000000000000000e+02,1.084888888888888847e-01,5.714261641814374904e-02
1.730000000000000000e+02,9.928888888888887099e-02,5.263932570912274733e-02
1.890000000000000000e+02,9.155555555555555669e-02,4.909964641194249080e-02
2.050000000000000000e+02,8.429999999999999993e-02,4.570842373129924835e-02
2.210000000000000000e+02,7.823333333333332140e-02,4.300218017728868469e-02
2.370000000000000000e+02,7.223333333333331607e-02,3.974273518518824794e-02
2.530000000000000000e+02,6.744444444444444575e-02,3.742616434765627664e-02
2.850000000000000000e+02,5.869999999999998830e-02,3.282023004185070925e-02
3.170000000000000000e+02,5.127777777777778323e-02,2.924345130870234163e-02
3.490000000000000000e+02,4.499999999999999833e-02,2.594470080767940015e-02
3.810000000000000000e+02,3.973333333333333578e-02,2.353747012743723221e-02
4.130000000000000000e+02,3.505555555555555508e-02,2.069445041014082720e-02
4.450000000000000000e+02,3.111111111111110675e-02,1.868772621565050265e-02
4.770000000000000000e+02,2.825555555555555112e-02,1.676850553203170294e-02
5.090000000000000000e+02,2.562222222222222678e-02,1.492939866318950155e-02
5.730000000000000000e+02,2.068777777777777716e-02,1.235400722213017208e-02
6.370000000000000000e+02,1.588666666666666699e-02,1.021468917784579440e-02
7.010000000000000000e+02,1.294222222222222302e-02,8.159305696224675511e-03
7.650000000000000000e+02,1.099444444444444210e-02,6.674202407612296953e-03
8.290000000000000000e+02,8.599888888888887820e-03,5.729979067248946491e-03
8.930000000000000000e+02,7.390222222222222505e-03,4.590222809891088794e-03
9.570000000000000000e+02,6.540666666666665983e-03,3.922899947742740714e-03
1.020000000000000000e+03,5.190111111111111487e-03,3.561066218299108275e-03
1.150000000000000000e+03,4.097777777777778310e-03,2.795683180269975358e-03
1.280000000000000000e+03,3.614444444444443998e-03,2.614288197153820815e-03
1.400000000000000000e+03,2.704444444444444214e-03,2.046839704954390819e-03
1.530000000000000000e+03,2.572222222222222705e-03,1.952631415409586098e-03
1.660000000000000000e+03,1.998999999999999909e-03,1.854406104390297688e-03
1.790000000000000000e+03,1.933333333333333128e-03,1.548187973083372040e-03
1.920000000000000000e+03,2.004199999999999818e-03,1.811533275984738905e-03
2.040000000000000000e+03,2.053888888888888518e-03,1.557613915933955427e-03
2.300000000000000000e+03,1.934555555555555464e-03,1.280689961613573928e-03
2.560000000000000000e+03,1.902111111111110930e-03,1.381545008717092451e-03
2.810000000000000000e+03,1.161666666666666750e-03,1.251582398406113870e-03
3.070000000000000000e+03,1.152777777777777742e-03,6.649033346618472796e-04
3.320000000000000000e+03,1.584000000000000121e-03,6.302802947895483386e-04
3.580000000000000000e+03,1.404666666666666694e-03,6.985429478564648877e-04
3.840000000000000000e+03,1.049333333333333541e-03,8.823019607821349980e-04
4.090000000000000000e+03,9.855555555555557071e-04,5.702499695552624591e-04
4.600000000000000000e+03,7.658777777777778240e-04,6.602439961441863717e-04
5.120000000000000000e+03,1.452555555555555458e-03,8.793328594893846419e-04
5.630000000000000000e+03,1.002566666666666840e-03,6.610768412219565930e-04
6.140000000000000000e+03,1.323333333333333479e-03,8.829309146246948608e-04
6.650000000000000000e+03,1.596444444444444603e-03,1.028412139065743329e-03
7.160000000000000000e+03,1.422111111111110972e-03,9.935057177042872726e-04
7.680000000000000000e+03,1.276888888888889038e-03,5.204981855022273920e-04
8.190000000000000000e+03,9.410000000000001046e-04,3.575622323456435553e-04
9.210000000000000000e+03,8.124444444444443034e-04,3.585394368514818590e-04
1.020000000000000000e+04,9.344444444444445583e-04,4.720273061781254682e-04
1.130000000000000000e+04,6.926222222222223369e-04,4.003642522059686244e-04
1.230000000000000000e+04,7.206444444444445657e-04,3.564400198880279878e-04
1.330000000000000000e+04,7.374444444444444319e-04,3.605551660672438657e-04
1.430000000000000000e+04,1.193888888888889081e-03,5.930194862827957913e-04
1.540000000000000000e+04,8.003333333333332352e-04,3.820068716659426062e-04
1.640000000000000000e+04,7.620000000000000905e-04,2.338792423452752645e-04
1.840000000000000000e+04,9.046666666666666832e-04,5.640241572840653216e-04
2.050000000000000000e+04,8.646666666666665783e-04,6.392489734055111731e-04
2.250000000000000000e+04,6.243333333333332940e-04,3.214692831360408797e-04
2.460000000000000000e+04,7.912222222222222399e-04,6.331484379230864013e-04
2.660000000000000000e+04,5.922222222222221734e-04,3.155636931658083763e-04
2.870000000000000000e+04,9.507777777777780357e-04,8.167710477511091549e-04
3.070000000000000000e+04,7.153333333333333375e-04,4.364129351886812235e-04
3.280000000000000000e+04,4.866222222222221002e-04,3.547432902035561474e-04
3.690000000000000000e+04,6.395555555555555369e-04,2.311839695519084974e-04
4.100000000000000000e+04,7.853333333333333043e-04,4.795200725725669777e-04
4.510000000000000000e+04,6.995555555555555858e-04,6.173076848523576486e-04
4.910000000000000000e+04,3.848999999999999774e-04,4.366305245857188570e-04
5.320000000000000000e+04,5.606666666666665615e-04,3.979943466935177373e-04
5.730000000000000000e+04,6.671111111111111599e-04,4.430201588089542923e-04
6.140000000000000000e+04,6.703333333333332195e-04,4.377473586442298149e-04
6.550000000000000000e+04,6.921111111111110086e-04,3.862147862409090883e-04
7.370000000000000000e+04,6.232222222222221679e-04,2.675447522274441103e-04
8.190000000000000000e+04,4.971111111111111477e-04,2.351858012532030066e-04
9.010000000000000000e+04,5.567777777777777829e-04,3.072640467813383155e-04
9.830000000000000000e+04,4.907777777777778050e-04,2.457675618230454229e-04
1.060000000000000000e+05,5.477777777777777810e-04,3.549432270722241217e-04
1.150000000000000000e+05,5.017777777777776387e-04,2.666349460300439299e-04
1.230000000000000000e+05,5.958888888888889653e-04,2.778013878855019759e-04
1.310000000000000000e+05,5.965555555555555759e-04,3.257779577837913729e-04
1.470000000000000000e+05,4.637777777777777450e-04,2.435388971898420169e-04
1.640000000000000000e+05,4.472222222222222267e-04,2.093996046902773752e-04
1.800000000000000000e+05,5.223333333333333084e-04,3.163230152865896213e-04
1.970000000000000000e+05,6.637333333333332759e-04,2.869510236956822682e-04
2.130000000000000000e+05,4.935555555555555659e-04,3.544256308138250128e-04
2.290000000000000000e+05,5.354444444444445093e-04,2.373821344957909268e-04
2.460000000000000000e+05,4.631111111111110802e-04,2.329696570609810348e-04
2.620000000000000000e+05,5.423333333333334692e-04,3.401231394656941028e-04
2.950000000000000000e+05,4.934888888888887531e-04,3.161999385058623523e-04
3.280000000000000000e+05,3.460222222222222605e-04,3.557839997026909958e-04
3.600000000000000000e+05,4.394444444444444526e-04,2.575524757748948266e-04
3.930000000000000000e+05,4.618888888888889066e-04,3.194356134045029934e-04
4.260000000000000000e+05,5.031111111111110767e-04,3.530907972619947810e-04
4.590000000000000000e+05,3.171111111111111092e-04,2.445222098524203812e-04
4.920000000000000000e+05,4.803333333333333717e-04,4.159888820629705723e-04
5.240000000000000000e+05,6.404666666666666581e-04,6.384704319700325835e-04
5.900000000000000000e+05,6.076111111111110689e-04,5.212695906257251797e-04
6.550000000000000000e+05,6.366666666666667826e-04,4.641828842169862463e-04
7.210000000000000000e+05,4.928888888888888469e-04,3.292849998270664085e-04
7.860000000000000000e+05,5.784333333333333167e-04,6.871959254826820636e-04
8.520000000000000000e+05,4.972666666666666468e-04,5.759735584208705485e-04
9.180000000000000000e+05,7.578888888888888915e-04,6.438475060999391012e-04
9.830000000000000000e+05,5.673333333333333180e-04,5.680723985549728568e-04
1.050000000000000000e+06,8.541111111111112601e-04,4.664620682446870897e-04
1.180000000000000000e+06,8.055555555555555603e-04,4.954041559956655653e-04
1.310000000000000000e+06,1.157111111111111361e-03,1.160278893676477702e-03
1.440000000000000000e+06,8.713111111111110276e-04,7.404577780745578292e-04
1.570000000000000000e+06,1.163111111111111073e-03,9.275383340386052569e-04
1.700000000000000000e+06,1.002655555555555635e-03,8.818373675331397802e-04
1.840000000000000000e+06,1.064888888888888873e-03,9.486201089535848232e-04
1.970000000000000000e+06,1.190166666666666847e-03,1.044115055920562859e-03
2.100000000000000000e+06,0.000000000000000000e+00,0.000000000000000000e+00
2.360000000000000000e+06,0.000000000000000000e+00,0.000000000000000000e+00
2.620000000000000000e+06,0.000000000000000000e+00,0.000000000000000000e+00
2.880000000000000000e+06,0.000000000000000000e+00,0.000000000000000000e+00
3.150000000000000000e+06,0.000000000000000000e+00,0.000000000000000000e+00
3.410000000000000000e+06,0.000000000000000000e+00,0.000000000000000000e+00
3.670000000000000000e+06,0.000000000000000000e+00,0.000000000000000000e+00
3.930000000000000000e+06,0.000000000000000000e+00,0.000000000000000000e+00
4.190000000000000000e+06,0.000000000000000000e+00,0.000000000000000000e+00
4.720000000000000000e+06,0.000000000000000000e+00,0.000000000000000000e+00
5.240000000000000000e+06,0.000000000000000000e+00,0.000000000000000000e+00
5.770000000000000000e+06,0.000000000000000000e+00,0.000000000000000000e+00
6.290000000000000000e+06,0.000000000000000000e+00,0.000000000000000000e+00
6.820000000000000000e+06,0.000000000000000000e+00,0.000000000000000000e+00
7.340000000000000000e+06,0.000000000000000000e+00,0.000000000000000000e+00
7.860000000000000000e+06,0.000000000000000000e+00,0.000000000000000000e+00
8.390000000000000000e+06,0.000000000000000000e+00,0.000000000000000000e+00
9.440000000000000000e+06,0.000000000000000000e+00,0.000000000000000000e+00
1.050000000000000000e+07,0.000000000000000000e+00,0.000000000000000000e+00
1.150000000000000000e+07,0.000000000000000000e+00,0.000000000000000000e+00
1.260000000000000000e+07,0.000000000000000000e+00,0.000000000000000000e+00
1.360000000000000000e+07,0.000000000000000000e+00,0.000000000000000000e+00
1.470000000000000000e+07,0.000000000000000000e+00,0.000000000000000000e+00
1.570000000000000000e+07,0.000000000000000000e+00,0.000000000000000000e+00
1.680000000000000000e+07,0.000000000000000000e+00,0.000000000000000000e+00
1.890000000000000000e+07,0.000000000000000000e+00,0.000000000000000000e+00
2.100000000000000000e+07,0.000000000000000000e+00,0.000000000000000000e+00
2.310000000000000000e+07,0.000000000000000000e+00,0.000000000000000000e+00
2.520000000000000000e+07,0.000000000000000000e+00,0.000000000000000000e+00
2.730000000000000000e+07,0.000000000000000000e+00,0.000000000000000000e+00
2.940000000000000000e+07,0.000000000000000000e+00,0.000000000000000000e+00
3.150000000000000000e+07,0.000000000000000000e+00,0.000000000000000000e+00
3.360000000000000000e+07,0.000000000000000000e+00,0.000000000000000000e+00
3.770000000000000000e+07,0.000000000000000000e+00,0.000000000000000000e+00
4.190000000000000000e+07,0.000000000000000000e+00,0.000000000000000000e+00
4.610000000000000000e+07,0.000000000000000000e+00,0.000000000000000000e+00
5.030000000000000000e+07,0.000000000000000000e+00,0.000000000000000000e+00
5.450000000000000000e+07,0.000000000000000000e+00,0.000000000000000000e+00
5.870000000000000000e+07,0.000000000000000000e+00,0.000000000000000000e+00
