Lag Time [us], Avg. Corr. [-], Std. Dev. Corr. [-]
5.000000000000000000e-01,7.565555555555555367e-01,4.511682366676294381e-02
1.000000000000000000e+00,7.306666666666665755e-01,3.976807765029634345e-02
1.500000000000000000e+00,7.046666666666666634e-01,3.926194085880114343e-02
2.000000000000000000e+00,6.817777777777778159e-01,3.756586807787679755e-02
2.500000000000000000e+00,6.612222222222221557e-01,3.686386366680035470e-02
3.000000000000000000e+00,6.410000000000001252e-01,3.500714212842860606e-02
3.500000000000000000e+00,6.225555555555555287e-01,3.398569960700794507e-02
4.000000000000000000e+00,6.041111111111110432e-01,3.137452965561574741e-02
4.500000000000000000e+00,5.882222222222222019e-01,3.024391582524398742e-02
5.500000000000000000e+00,5.587777777777778176e-01,2.843315748284813704e-02
6.500000000000000000e+00,5.307777777777777928e-01,2.587845521750563316e-02
7.500000000000000000e+00,5.058888888888888324e-01,2.565367636638289303e-02
8.500000000000000000e+00,4.825555555555555709e-01,2.295708556802839376e-02
9.500000000000000000e+00,4.603333333333333166e-01,2.279802623035599718e-02
1.050000000000000000e+01,4.393333333333333535e-01,1.964051934140235642e-02
1.150000000000000000e+01,4.204444444444443985e-01,1.968572522864672075e-02
1.250000000000000000e+01,4.024444444444444935e-01,1.844661968431554264e-02
1.450000000000000000e+01,3.691111111111111120e-01,1.702530795936188154e-02
1.650000000000000000e+01,3.386666666666666714e-01,1.620185174601964512e-02
1.850000000000000000e+01,3.107777777777777639e-01,1.536861882032488670e-02
2.050000000000000000e+01,2.865555555555555634e-01,1.510058865666426969e-02
2.250000000000000000e+01,2.635555555555555429e-01,1.504253229272843259e-02
2.450000000000000000e+01,2.424444444444444346e-01,1.448370732160029345e-02
2.650000000000000000e+01,2.235555555555555629e-01,1.503422022513232516e-02
2.850000000000000000e+01,2.066666666666666652e-01,1.554027026792004912e-02
3.250000000000000000e+01,1.768888888888888733e-01,1.576740660702041427e-02
3.650000000000000000e+01,1.516666666666666996e-01,1.730606829987677356e-02
4.050000000000000000e+01,1.304444444444444740e-01,1.710344344796619134e-02
4.450000000000000000e+01,1.130666666666666764e-01,1.745128935064685013e-02
4.850000000000000000e+01,9.771111111111112357e-02,1.739356522140044284e-02
5.250000000000000000e+01,8.501111111111110674e-02,1.748824208178486814e-02
5.650000000000000000e+01,7.486666666666667858e-02,1.733558478967467398e-02
6.050000000000000000e+01,6.617777777777779369e-02,1.691100069317142546e-02
6.850000000000000000e+01,5.227777777777778412e-02,1.614510589759151835e-02
7.650000000000000000e+01,4.192222222222222183e-02,1.547463875004662266e-02
8.450000000000000000e+01,3.432222222222222618e-02,1.460229243798535914e-02
9.250000000000000000e+01,2.852222222222221965e-02,1.407646775453431746e-02
1.010000000000000000e+02,2.444444444444444572e-02,1.358051095422325473e-02
1.090000000000000000e+02,2.173666666666666455e-02,1.288065798008781668e-02
1.170000000000000000e+02,1.887000000000000136e-02,1.279473036058204755e-02
1.250000000000000000e+02,1.709222222222222046e-02,1.205548192501836209e-02
1.410000000000000000e+02,1.415333333333333200e-02,1.129645630275264746e-02
1.570000000000000000e+02,1.252555555555555540e-02,1.090951546943207638e-02
1.730000000000000000e+02,1.173333333333333173e-02,1.008674749361755316e-02
1.890000000000000000e+02,1.071222222222222367e-02,1.016682322283831395e-02
2.050000000000000000e+02,1.012444444444444286e-02,9.997813649882546574e-03
2.210000000000000000e+02,9.670888888888888590e-03,9.511599345594362945e-03
2.370000000000000000e+02,9.500222222222220667e-03,9.330721860844661333e-03
2.530000000000000000e+02,8.951222222222219790e-03,9.158784496014983970e-03
2.850000000000000000e+02,8.423333333333333020e-03,8.855879402972921186e-03
3.170000000000000000e+02,8.496555555555555805e-03,8.457728819120283181e-03
3.490000000000000000e+02,8.095777777777778128e-03,8.219846664898588715e-03
3.810000000000000000e+02,7.831333333333334243e-03,8.043436408028598050e-03
4.130000000000000000e+02,7.709555555555557167e-03,7.555958693493352793e-03
4.450000000000000000e+02,7.247222222222220872e-03,7.682965439493037382e-03
4.770000000000000000e+02,6.830555555555555859e-03,7.490105224746697321e-03
5.090000000000000000e+02,6.702555555555556217e-03,7.285498800890559228e-03
5.730000000000000000e+02,6.691555555555555625e-03,6.648196129611233518e-03
6.370000000000000000e+02,6.143888888888889704e-03,6.055638084554848706e-03
7.010000000000000000e+02,5.808777777777778158e-03,5.799224081240907623e-03
7.650000000000000000e+02,5.839111111111110891e-03,5.545875324158586715e-03
8.290000000000000000e+02,5.840555555555554564e-03,5.297444221299340943e-03
8.930000000000000000e+02,5.814888888888888538e-03,5.075216681198065419e-03
9.570000000000000000e+02,5.250111111111111645e-03,5.167722526520857756e-03
1.020000000000000000e+03,4.875555555555555719e-03,4.666619496785416078e-03
1.150000000000000000e+03,4.381444444444444752e-03,4.507314142344393329e-03
1.280000000000000000e+03,4.226666666666666766e-03,4.117799078391271017e-03
1.400000000000000000e+03,3.624944444444444525e-03,3.722958957976542013e-03
1.530000000000000000e+03,3.352888888888888759e-03,3.331268506306736196e-03
1.660000000000000000e+03,3.490888888888888861e-03,3.272902131306573963e-03
1.790000000000000000e+03,3.262222222222222346e-03,2.896919820161484270e-03
1.920000000000000000e+03,3.342422222222222235e-03,3.063321384452575603e-03
2.040000000000000000e+03,2.980777777777778373e-03,2.654494903827175293e-03
2.300000000000000000e+03,2.798511111111111251e-03,2.571514340055507629e-03
2.560000000000000000e+03,2.553888888888888528e-03,2.478425833288362169e-03
2.810000000000000000e+03,2.170222222222221824e-03,2.242484379977805614e-03
3.070000000000000000e+03,2.324888888888888491e-03,2.177140122066356740e-03
3.320000000000000000e+03,2.434444444444444373e-03,2.138271504691997144e-03
3.580000000000000000e+03,2.292233333333332582e-03,2.116674264028360185e-03
3.840000000000000000e+03,1.915255555555555158e-03,1.955182761988704093e-03
4.090000000000000000e+03,1.842666666666666932e-03,2.042148378546475990e-03
4.600000000000000000e+03,1.785444444444444535e-03,1.766938744772375298e-03
5.120000000000000000e+03,1.821000000000000136e-03,1.813458160531971177e-03
5.630000000000000000e+03,1.729666666666666679e-03,1.817087367189591015e-03
6.140000000000000000e+03,1.828666666666666808e-03,1.751504139304272192e-03
6.650000000000000000e+03,1.659477777777777861e-03,1.972527865315074330e-03
7.160000000000000000e+03,1.469511111111110931e-03,1.726157713278572790e-03
7.680000000000000000e+03,1.588000000000000002e-03,1.603207800005975684e-03
8.190000000000000000e+03,1.545444444444444556e-03,1.678322459415286950e-03
9.210000000000000000e+03,1.613333333333333156e-03,1.714240429461398639e-03
1.020000000000000000e+04,1.504085555555555610e-03,1.696594968864925624e-03
1.130000000000000000e+04,1.462555555555555917e-03,1.674756856316097576e-03
1.230000000000000000e+04,1.457888888888889210e-03,1.666481431373032385e-03
1.330000000000000000e+04,1.452000000000000166e-03,1.569898802471038314e-03
1.430000000000000000e+04,1.436888888888888591e-03,1.491027451494811177e-03
1.540000000000000000e+04,1.271111111111111096e-03,1.576204733247274633e-03
1.640000000000000000e+04,1.357000000000000133e-03,1.496078707822553035e-03
1.840000000000000000e+04,1.232477777777777998e-03,1.436079410911682329e-03
2.050000000000000000e+04,1.224822222222222154e-03,1.516276338417389159e-03
2.250000000000000000e+04,1.234744444444444431e-03,1.473582950762452898e-03
2.460000000000000000e+04,1.318999999999999860e-03,1.504360162992891912e-03
2.660000000000000000e+04,1.305444444444444361e-03,1.514729688022842507e-03
2.870000000000000000e+04,1.181355555555555588e-03,1.601244262371540441e-03
3.070000000000000000e+04,1.223599999999999818e-03,1.576759807326404573e-03
3.280000000000000000e+04,1.141222222222222291e-03,1.355347720861493129e-03
3.690000000000000000e+04,1.048955555555555622e-03,1.405969988220864483e-03
4.100000000000000000e+04,1.066144444444444344e-03,1.311910834537842159e-03
4.510000000000000000e+04,1.023044444444444218e-03,1.371240302710570718e-03
4.910000000000000000e+04,1.036833333333333400e-03,1.314747932114745856e-03
5.320000000000000000e+04,9.765555555555555968e-04,1.310257046452251552e-03
5.730000000000000000e+04,1.074555555555555160e-03,1.287795413789697167e-03
6.140000000000000000e+04,1.023233333333333503e-03,1.372489222179904857e-03
6.550000000000000000e+04,1.022444444444444529e-03,1.297526985375555691e-03
7.370000000000000000e+04,1.031322222222222059e-03,1.226317458672282002e-03
8.190000000000000000e+04,1.007522222222222239e-03,1.286158613641585164e-03
9.010000000000000000e+04,1.017999999999999808e-03,1.227964312388597204e-03
9.830000000000000000e+04,9.493333333333334959e-04,1.152281432637009993e-03
1.060000000000000000e+05,1.015755555555555465e-03,1.242252827639276453e-03
1.150000000000000000e+05,9.616666666666664424e-04,1.239961390527946931e-03
1.230000000000000000e+05,9.211555555555553344e-04,1.222615673577669149e-03
1.310000000000000000e+05,9.295222222222222948e-04,1.193612449434256016e-03
1.470000000000000000e+05,9.157666666666666819e-04,1.182685600656404332e-03
1.640000000000000000e+05,8.606777777777778514e-04,1.127037980480003398e-03
1.800000000000000000e+05,8.770444444444444642e-04,1.154732850176948267e-03
1.970000000000000000e+05,9.401111111111112905e-04,1.104931496116891027e-03
2.130000000000000000e+05,8.532777777777777800e-04,1.164670373730028506e-03
2.290000000000000000e+05,8.239333333333332668e-04,1.096374156025213802e-03
2.460000000000000000e+05,8.954444444444444777e-04,1.110773729333646874e-03
2.620000000000000000e+05,9.232444444444443945e-04,1.170636552384119638e-03
2.950000000000000000e+05,8.639999999999999677e-04,9.666683764352696287e-04
3.280000000000000000e+05,9.022888888888889319e-04,9.558633537860477050e-04
3.600000000000000000e+05,7.975333333333332756e-04,8.512657693106190360e-04
3.930000000000000000e+05,8.049999999999998346e-04,8.791973612335288396e-04
4.260000000000000000e+05,8.012666666666666635e-04,8.400479986286497327e-04
4.590000000000000000e+05,8.020111111111111321e-04,9.931567354205029542e-04
4.920000000000000000e+05,7.987777777777780273e-04,9.662793045721534231e-04
5.240000000000000000e+05,8.228888888888888451e-04,8.486171758284834698e-04
5.900000000000000000e+05,7.167333333333332631e-04,7.616745302292837099e-04
6.550000000000000000e+05,6.666777777777777979e-04,7.325799167629730652e-04
7.210000000000000000e+05,7.356666666666665869e-04,7.437319745714850074e-04
7.860000000000000000e+05,7.437777777777777747e-04,7.364858752511445035e-04
8.520000000000000000e+05,5.915555555555556712e-04,6.400644715790572469e-04
9.180000000000000000e+05,6.543333333333333727e-04,6.470884792669392678e-04
9.830000000000000000e+05,5.705444444444444409e-04,6.062798799051290514e-04
1.050000000000000000e+06,7.307777777777777839e-04,5.918673368622772660e-04
1.180000000000000000e+06,6.753888888888890003e-04,5.486158593324759643e-04
1.310000000000000000e+06,5.177777777777777023e-04,5.687070374493747660e-04
1.440000000000000000e+06,5.417111111111111476e-04,6.513665259369038479e-04
1.570000000000000000e+06,5.696666666666666719e-04,7.071497366187730468e-04
1.700000000000000000e+06,6.303333333333335483e-04,6.847121658039968068e-04
1.840000000000000000e+06,5.660888888888887830e-04,7.895411380106239201e-04
1.970000000000000000e+06,7.397777777777778943e-04,8.510478508547238748e-04
2.100000000000000000e+06,5.425555555555555643e-04,1.042591136437375117e-03
2.360000000000000000e+06,6.788888888888889228e-04,1.165337337903111755e-03
2.620000000000000000e+06,6.688888888888888965e-04,1.186670177897426954e-03
2.880000000000000000e+06,8.054444444444444585e-04,1.551735891760507935e-03
3.150000000000000000e+06,9.245555555555556339e-04,1.855020694703371411e-03
3.410000000000000000e+06,9.968888888888889546e-04,1.989415017313157872e-03
3.670000000000000000e+06,1.026333333333333308e-03,2.039340824874547303e-03
3.930000000000000000e+06,1.175555555555555555e-03,2.193149055075322047e-03
4.190000000000000000e+06,0.000000000000000000e+00,0.000000000000000000e+00
4.720000000000000000e+06,0.000000000000000000e+00,0.000000000000000000e+00
5.240000000000000000e+06,0.000000000000000000e+00,0.000000000000000000e+00
5.770000000000000000e+06,0.000000000000000000e+00,0.000000000000000000e+00
6.290000000000000000e+06,0.000000000000000000e+00,0.000000000000000000e+00
6.820000000000000000e+06,0.000000000000000000e+00,0.000000000000000000e+00
7.340000000000000000e+06,0.000000000000000000e+00,0.000000000000000000e+00
7.860000000000000000e+06,0.000000000000000000e+00,0.000000000000000000e+00
8.390000000000000000e+06,0.000000000000000000e+00,0.000000000000000000e+00
9.440000000000000000e+06,0.000000000000000000e+00,0.000000000000000000e+00
1.050000000000000000e+07,0.000000000000000000e+00,0.000000000000000000e+00
1.150000000000000000e+07,0.000000000000000000e+00,0.000000000000000000e+00
1.260000000000000000e+07,0.000000000000000000e+00,0.000000000000000000e+00
1.360000000000000000e+07,0.000000000000000000e+00,0.000000000000000000e+00
1.470000000000000000e+07,0.000000000000000000e+00,0.000000000000000000e+00
1.570000000000000000e+07,0.000000000000000000e+00,0.000000000000000000e+00
1.680000000000000000e+07,0.000000000000000000e+00,0.000000000000000000e+00
1.890000000000000000e+07,0.000000000000000000e+00,0.000000000000000000e+00
2.100000000000000000e+07,0.000000000000000000e+00,0.000000000000000000e+00
2.310000000000000000e+07,0.000000000000000000e+00,0.000000000000000000e+00
2.520000000000000000e+07,0.000000000000000000e+00,0.000000000000000000e+00
2.730000000000000000e+07,0.000000000000000000e+00,0.000000000000000000e+00
2.940000000000000000e+07,0.000000000000000000e+00,0.000000000000000000e+00
3.150000000000000000e+07,0.000000000000000000e+00,0.000000000000000000e+00
3.360000000000000000e+07,0.000000000000000000e+00,0.000000000000000000e+00
3.770000000000000000e+07,0.000000000000000000e+00,0.000000000000000000e+00
4.190000000000000000e+07,0.000000000000000000e+00,0.000000000000000000e+00
4.610000000000000000e+07,0.000000000000000000e+00,0.000000000000000000e+00
5.030000000000000000e+07,0.000000000000000000e+00,0.000000000000000000e+00
5.450000000000000000e+07,0.000000000000000000e+00,0.000000000000000000e+00
5.870000000000000000e+07,0.000000000000000000e+00,0.000000000000000000e+00
