Lag Time [us], Avg. Corr. [-], Std. Dev. Corr. [-]
5.000000000000000000e-01,7.606666666666667131e-01,1.050396750439249599e-02
1.000000000000000000e+00,7.273333333333332762e-01,1.106044001535804767e-02
1.500000000000000000e+00,6.939999999999999503e-01,1.053565375285269584e-02
2.000000000000000000e+00,6.656666666666667398e-01,9.018499505645797068e-03
2.500000000000000000e+00,6.403333333333334210e-01,1.050396750439249773e-02
3.000000000000000000e+00,6.173333333333332895e-01,9.504384952922176333e-03
3.500000000000000000e+00,5.939999999999999725e-01,1.053565375285274788e-02
4.000000000000000000e+00,5.746666666666665479e-01,1.159022576714248409e-02
4.500000000000000000e+00,5.570000000000000506e-01,1.053565375285269064e-02
5.500000000000000000e+00,5.226666666666667238e-01,1.059874206372310619e-02
6.500000000000000000e+00,4.933333333333333459e-01,1.006644591369434093e-02
7.500000000000000000e+00,4.673333333333333228e-01,1.006644591369431144e-02
8.500000000000000000e+00,4.420000000000000040e-01,1.014889156509222838e-02
9.500000000000000000e+00,4.196666666666666323e-01,1.026320287889377625e-02
1.050000000000000000e+01,3.996666666666666701e-01,9.291573243177546695e-03
1.150000000000000000e+01,3.800000000000000600e-01,9.848857801796112935e-03
1.250000000000000000e+01,3.623333333333333406e-01,9.712534856222318838e-03
1.450000000000000000e+01,3.293333333333333113e-01,8.736894948054112903e-03
1.650000000000000000e+01,2.996666666666666923e-01,9.073771725877474020e-03
1.850000000000000000e+01,2.723333333333333717e-01,9.451631252505194106e-03
2.050000000000000000e+01,2.486666666666666747e-01,9.291573243177577920e-03
2.250000000000000000e+01,2.269999999999999796e-01,7.937253933193761865e-03
2.450000000000000000e+01,2.063333333333333408e-01,7.571877794400355688e-03
2.650000000000000000e+01,1.883333333333333248e-01,7.767453465154036500e-03
2.850000000000000000e+01,1.726666666666666627e-01,7.371114795831984305e-03
3.250000000000000000e+01,1.440000000000000169e-01,7.211102550927973864e-03
3.650000000000000000e+01,1.206666666666666582e-01,6.429100507328637526e-03
4.050000000000000000e+01,1.010333333333333500e-01,5.272886622461488669e-03
4.450000000000000000e+01,8.536666666666666015e-02,5.276678248039518536e-03
4.850000000000000000e+01,7.156666666666666732e-02,4.534681172181054612e-03
5.250000000000000000e+01,6.009999999999999371e-02,4.715930449020637634e-03
5.650000000000000000e+01,5.090000000000000080e-02,4.160528812542946264e-03
6.050000000000000000e+01,4.336666666666666448e-02,3.356088993655167389e-03
6.850000000000000000e+01,3.083333333333333412e-02,2.421432083155198711e-03
7.650000000000000000e+01,2.290000000000000022e-02,1.752141546793523031e-03
8.450000000000000000e+01,1.663333333333333330e-02,1.167618659209132635e-03
9.250000000000000000e+01,1.233333333333333330e-02,1.011599393699567700e-03
1.010000000000000000e+02,9.366666666666667238e-03,1.248091876959919397e-03
1.090000000000000000e+02,7.269999999999999553e-03,1.195282393411699253e-03
1.170000000000000000e+02,5.700000000000000205e-03,1.129070414101795419e-03
1.250000000000000000e+02,4.676666666666666645e-03,6.568358496103371977e-04
1.410000000000000000e+02,3.383333333333333678e-03,2.030599254735738156e-04
1.570000000000000000e+02,2.323333333333333500e-03,2.040424792373719907e-04
1.730000000000000000e+02,1.306666666666666697e-03,2.318045153428495355e-04
1.890000000000000000e+02,9.779999999999999197e-04,1.760766878379986077e-04
2.050000000000000000e+02,1.082666666666666673e-03,4.915702730366568532e-04
2.210000000000000000e+02,9.903333333333332999e-04,2.506198981193099814e-04
2.370000000000000000e+02,1.108333333333333349e-03,1.805777764104247107e-04
2.530000000000000000e+02,9.049999999999999885e-04,1.515618685553856890e-04
2.850000000000000000e+02,5.800000000000000034e-04,2.955012690328080640e-04
3.170000000000000000e+02,5.736666666666666607e-04,2.951954155018897256e-04
3.490000000000000000e+02,7.882666666666665644e-04,7.192325168770758500e-04
3.810000000000000000e+02,8.390000000000000105e-04,2.584588942172430428e-04
4.130000000000000000e+02,7.586666666666667122e-04,1.115003736914515348e-04
4.450000000000000000e+02,6.250000000000000130e-04,1.776034909566813426e-04
4.770000000000000000e+02,8.219999999999999226e-04,2.309372209064619477e-04
5.090000000000000000e+02,7.536666666666666991e-04,2.550104573019179176e-04
5.730000000000000000e+02,4.906666666666667032e-04,1.472220545072419758e-04
6.370000000000000000e+02,6.836666666666666239e-04,1.283134183682023758e-04
7.010000000000000000e+02,8.503333333333334748e-04,1.150927162479595446e-04
7.650000000000000000e+02,6.040000000000000447e-04,1.169658069693874195e-04
8.290000000000000000e+02,6.499999999999999702e-04,2.588957319076542552e-04
8.930000000000000000e+02,5.566666666666666811e-04,7.672244347864143896e-05
9.570000000000000000e+02,6.770000000000000843e-04,2.715529414313164669e-04
1.020000000000000000e+03,6.279999999999999775e-04,2.577925522585941759e-04
1.150000000000000000e+03,2.703333333333333087e-04,2.485605224755800449e-04
1.280000000000000000e+03,4.856666666666666359e-04,2.899695386300659523e-04
1.400000000000000000e+03,6.549999999999998749e-04,5.686114666448435426e-04
1.530000000000000000e+03,1.655666666666666886e-04,2.094880505740920307e-04
1.660000000000000000e+03,3.219999999999999664e-04,1.856555951217198997e-04
1.790000000000000000e+03,4.733333333333333641e-04,2.534804397450291197e-04
1.920000000000000000e+03,4.510000000000000120e-04,9.250405396521820651e-05
2.040000000000000000e+03,4.673333333333332725e-04,2.907650827271618843e-04
2.300000000000000000e+03,3.202333333333332748e-04,2.246821384385802080e-04
2.560000000000000000e+03,4.136666666666666205e-04,1.425002923973608211e-04
2.810000000000000000e+03,2.983333333333333388e-04,9.383140909809109986e-05
3.070000000000000000e+03,3.099999999999999999e-04,1.307669683062200787e-05
3.320000000000000000e+03,2.903333333333333612e-04,1.522180453603755020e-04
3.580000000000000000e+03,4.223333333333333171e-04,2.960917650549122252e-04
3.840000000000000000e+03,4.236666666666666467e-04,2.185962793217975089e-04
4.090000000000000000e+03,3.246666666666666798e-04,1.315003168563989996e-04
4.600000000000000000e+03,1.409999999999999849e-04,1.058158778255891035e-04
5.120000000000000000e+03,1.774666666666666526e-04,1.435724671841134576e-04
5.630000000000000000e+03,1.249333333333333253e-04,1.035683992988852383e-04
6.140000000000000000e+03,1.823999999999999884e-04,1.513653857392765784e-04
6.650000000000000000e+03,2.763333333333333462e-04,9.790471558272017074e-05
7.160000000000000000e+03,3.119999999999999944e-04,1.729479690542794299e-04
7.680000000000000000e+03,3.099999999999999999e-04,1.422111106770494184e-04
8.190000000000000000e+03,2.739999999999999923e-04,1.947408534437497214e-04
9.210000000000000000e+03,1.671333333333333210e-04,7.471581715629786041e-05
1.020000000000000000e+04,1.662666666666666514e-04,1.040481298886882151e-04
1.130000000000000000e+04,2.270999999999999636e-04,1.995350345177508060e-04
1.230000000000000000e+04,3.626666666666666819e-04,7.247298347200377931e-05
1.330000000000000000e+04,2.710000000000000278e-04,5.141984052872974415e-05
1.430000000000000000e+04,2.886666666666666721e-04,1.354855465846203596e-04
1.540000000000000000e+04,2.666666666666666252e-04,6.027713773341718286e-06
1.640000000000000000e+04,2.473333333333333460e-04,1.318496618627948132e-04
1.840000000000000000e+04,1.487666666666666597e-04,1.327167786428427832e-04
2.050000000000000000e+04,2.573333333333333722e-04,4.418521623046936623e-05
2.250000000000000000e+04,1.759333333333333452e-04,9.326528471694778125e-05
2.460000000000000000e+04,2.333333333333333581e-04,1.418179584302825134e-04
2.660000000000000000e+04,2.449999999999999921e-04,6.464518543557594052e-05
2.870000000000000000e+04,2.266666666666666829e-04,1.411889986271357275e-04
3.070000000000000000e+04,2.494999999999999931e-04,1.339468178046794664e-04
3.280000000000000000e+04,1.809999999999999814e-04,4.132795663954364233e-05
3.690000000000000000e+04,1.218666666666666699e-04,3.655479904654564122e-05
4.100000000000000000e+04,1.529666666666666534e-04,7.629418938119293626e-05
4.510000000000000000e+04,1.779999999999999898e-04,8.443340571124679367e-05
4.910000000000000000e+04,1.601333333333333135e-04,1.198935083035496677e-04
5.320000000000000000e+04,1.812666666666666636e-04,8.660954527841220932e-05
5.730000000000000000e+04,1.526666666666666461e-04,4.041451884327381331e-06
6.140000000000000000e+04,1.457666666666666681e-04,8.617867098843735255e-05
6.550000000000000000e+04,1.455333333333333381e-04,5.824648773388257602e-05
7.370000000000000000e+04,1.539333333333333254e-04,6.520439657978082282e-05
8.190000000000000000e+04,1.138000000000000014e-04,4.816139532862393738e-05
9.010000000000000000e+04,1.033666666666666675e-04,4.654141524850026517e-05
9.830000000000000000e+04,9.703333333333332474e-05,1.000616476644939958e-05
1.060000000000000000e+05,1.379333333333333160e-04,8.330794279859114380e-05
1.150000000000000000e+05,9.936666666666667865e-05,3.099069752898978166e-05
1.230000000000000000e+05,1.240000000000000054e-04,9.539392014169457125e-06
1.310000000000000000e+05,1.206999999999999929e-04,8.101524547886033881e-05
1.470000000000000000e+05,1.309666666666666607e-04,1.040706650950849478e-04
1.640000000000000000e+05,1.167999999999999795e-04,1.116747061782568501e-04
1.800000000000000000e+05,1.102333333333333339e-04,8.133734279734821672e-05
1.970000000000000000e+05,1.341999999999999823e-04,9.264404999782769874e-05
2.130000000000000000e+05,1.287333333333333092e-04,4.245719412930314466e-05
2.290000000000000000e+05,8.586666666666667577e-05,4.227260736379214487e-05
2.460000000000000000e+05,1.049999999999999908e-04,3.567912554982254070e-05
2.620000000000000000e+05,1.420000000000000092e-04,5.483611948342077174e-05
2.950000000000000000e+05,1.209333333333333229e-04,2.858694340662067690e-05
3.280000000000000000e+05,9.200000000000000007e-05,7.143528539874395415e-05
3.600000000000000000e+05,7.123333333333333459e-05,1.325908493574625796e-05
3.930000000000000000e+05,9.229999999999998026e-05,5.028807015585306123e-05
4.260000000000000000e+05,2.910999999999999742e-05,2.368584598446929037e-05
4.590000000000000000e+05,7.493333333333332966e-05,3.722490205941895682e-05
4.920000000000000000e+05,6.466666666666666191e-05,3.927013284079051384e-05
5.240000000000000000e+05,1.429000000000000040e-04,8.540684984238675905e-05
5.900000000000000000e+05,1.678999999999999883e-04,1.162206091878716650e-04
6.550000000000000000e+05,1.740000000000000010e-04,5.164300533470142388e-05
7.210000000000000000e+05,8.192000000000001527e-05,6.896360779425624607e-05
7.860000000000000000e+05,1.501000000000000164e-04,9.050596665413834167e-05
8.520000000000000000e+05,1.821666666666666584e-04,1.695142570208574815e-04
9.180000000000000000e+05,1.904333333333333182e-04,1.261255855619046451e-04
9.830000000000000000e+05,1.777333333333333076e-04,1.361837484185735416e-04
1.050000000000000000e+06,2.189999999999999835e-04,1.456605643267936670e-04
1.180000000000000000e+06,2.269999999999999882e-04,1.229918696499894743e-04
1.310000000000000000e+06,2.956666666666666796e-04,1.673359893547509661e-04
1.440000000000000000e+06,1.344999999999999896e-04,1.095030136571592099e-04
1.570000000000000000e+06,1.968999999999999884e-04,1.410756180209748372e-04
1.700000000000000000e+06,1.643333333333333072e-04,6.038487669386542902e-05
1.840000000000000000e+06,2.246666666666666614e-04,2.589079630550851621e-05
1.970000000000000000e+06,1.225666666666666734e-04,1.091343361794688816e-04
2.100000000000000000e+06,2.406666666666666709e-04,1.661154217203608533e-04
2.360000000000000000e+06,1.882999999999999962e-04,1.563306431893632224e-04
2.620000000000000000e+06,2.826666666666666889e-04,1.625833119767627473e-05
2.880000000000000000e+06,2.209333333333333277e-04,1.392020593717396479e-04
3.150000000000000000e+06,2.796666666666667244e-04,1.046390621772449461e-04
3.410000000000000000e+06,2.706666666666666683e-04,1.238803185874710877e-04
3.670000000000000000e+06,1.786000000000000044e-04,9.257796714121562876e-05
3.930000000000000000e+06,2.519999999999999996e-04,1.706956355622486407e-04
4.190000000000000000e+06,0.000000000000000000e+00,0.000000000000000000e+00
4.720000000000000000e+06,0.000000000000000000e+00,0.000000000000000000e+00
5.240000000000000000e+06,0.000000000000000000e+00,0.000000000000000000e+00
5.770000000000000000e+06,0.000000000000000000e+00,0.000000000000000000e+00
6.290000000000000000e+06,0.000000000000000000e+00,0.000000000000000000e+00
6.820000000000000000e+06,0.000000000000000000e+00,0.000000000000000000e+00
7.340000000000000000e+06,0.000000000000000000e+00,0.000000000000000000e+00
7.860000000000000000e+06,0.000000000000000000e+00,0.000000000000000000e+00
8.390000000000000000e+06,0.000000000000000000e+00,0.000000000000000000e+00
9.440000000000000000e+06,0.000000000000000000e+00,0.000000000000000000e+00
1.050000000000000000e+07,0.000000000000000000e+00,0.000000000000000000e+00
1.150000000000000000e+07,0.000000000000000000e+00,0.000000000000000000e+00
1.260000000000000000e+07,0.000000000000000000e+00,0.000000000000000000e+00
1.360000000000000000e+07,0.000000000000000000e+00,0.000000000000000000e+00
1.470000000000000000e+07,0.000000000000000000e+00,0.000000000000000000e+00
1.570000000000000000e+07,0.000000000000000000e+00,0.000000000000000000e+00
1.680000000000000000e+07,0.000000000000000000e+00,0.000000000000000000e+00
1.890000000000000000e+07,0.000000000000000000e+00,0.000000000000000000e+00
2.100000000000000000e+07,0.000000000000000000e+00,0.000000000000000000e+00
2.310000000000000000e+07,0.000000000000000000e+00,0.000000000000000000e+00
2.520000000000000000e+07,0.000000000000000000e+00,0.000000000000000000e+00
2.730000000000000000e+07,0.000000000000000000e+00,0.000000000000000000e+00
2.940000000000000000e+07,0.000000000000000000e+00,0.000000000000000000e+00
3.150000000000000000e+07,0.000000000000000000e+00,0.000000000000000000e+00
3.360000000000000000e+07,0.000000000000000000e+00,0.000000000000000000e+00
3.770000000000000000e+07,0.000000000000000000e+00,0.000000000000000000e+00
4.190000000000000000e+07,0.000000000000000000e+00,0.000000000000000000e+00
4.610000000000000000e+07,0.000000000000000000e+00,0.000000000000000000e+00
5.030000000000000000e+07,0.000000000000000000e+00,0.000000000000000000e+00
5.450000000000000000e+07,0.000000000000000000e+00,0.000000000000000000e+00
5.870000000000000000e+07,0.000000000000000000e+00,0.000000000000000000e+00
