Lag Time [us], Avg. Corr. [-], Std. Dev. Corr. [-]
5.000000000000000000e-01,8.579666666666665442e-01,2.910798365815945449e-02
1.000000000000000000e+00,8.590000000000000968e-01,3.664931668930682118e-02
1.500000000000000000e+00,8.552333333333332899e-01,4.193153971640566774e-02
2.000000000000000000e+00,8.516000000000000236e-01,4.709242563007493693e-02
2.500000000000000000e+00,8.485333333333334727e-01,5.148533995114588230e-02
3.000000000000000000e+00,8.456666666666664556e-01,5.559169705638779962e-02
3.500000000000000000e+00,8.424333333333333673e-01,6.039164325229643554e-02
4.000000000000000000e+00,8.401666666666666172e-01,6.380902721420370072e-02
4.500000000000000000e+00,8.370333333333336290e-01,6.816485257401193321e-02
5.500000000000000000e+00,8.318666666666668652e-01,7.500286584562933234e-02
6.500000000000000000e+00,8.271333333333333870e-01,8.155841288698351121e-02
7.500000000000000000e+00,8.228000000000001979e-01,8.612917323856429663e-02
8.500000000000000000e+00,8.183666666666664646e-01,9.216046101616809372e-02
9.500000000000000000e+00,8.140333333333332755e-01,9.729992144212488980e-02
1.050000000000000000e+01,8.100666666666669347e-01,1.017962580889864438e-01
1.150000000000000000e+01,8.059666666666668311e-01,1.062636549710957862e-01
1.250000000000000000e+01,8.020999999999999241e-01,1.105835150151388835e-01
1.450000000000000000e+01,7.947333333333332916e-01,1.182020284945646815e-01
1.650000000000000000e+01,7.875333333333333075e-01,1.243556449735258723e-01
1.850000000000000000e+01,7.804333333333333123e-01,1.311620959054057012e-01
2.050000000000000000e+01,7.738666666666667027e-01,1.363648082150971663e-01
2.250000000000000000e+01,7.674666666666666304e-01,1.412043599339900812e-01
2.450000000000000000e+01,7.608999999999999098e-01,1.459653596128086539e-01
2.650000000000000000e+01,7.547000000000000375e-01,1.499473815756024175e-01
2.850000000000000000e+01,7.486666666666667025e-01,1.537795855097165709e-01
3.250000000000000000e+01,7.373333333333332851e-01,1.604208545504999250e-01
3.650000000000000000e+01,7.262000000000000677e-01,1.656609333173823806e-01
4.050000000000000000e+01,7.154333333333331435e-01,1.696921519598994788e-01
4.450000000000000000e+01,7.051999999999998270e-01,1.731191337858372925e-01
4.850000000000000000e+01,6.954666666666666774e-01,1.754697603053277932e-01
5.250000000000000000e+01,6.858999999999999542e-01,1.773098495815184084e-01
5.650000000000000000e+01,6.766333333333333089e-01,1.785743317333792768e-01
6.050000000000000000e+01,6.678666666666664975e-01,1.793360808232896120e-01
6.850000000000000000e+01,6.507000000000001672e-01,1.797291352813046583e-01
7.650000000000000000e+01,6.341366666666666818e-01,1.792065317531381097e-01
8.450000000000000000e+01,6.183633333333332649e-01,1.777352631910989189e-01
9.250000000000000000e+01,6.029999999999998694e-01,1.756893280765795817e-01
1.010000000000000000e+02,5.884199999999998321e-01,1.729553548133757335e-01
1.090000000000000000e+02,5.741300000000000292e-01,1.701189262515065415e-01
1.170000000000000000e+02,5.603833333333334554e-01,1.668817960431116243e-01
1.250000000000000000e+02,5.469033333333332969e-01,1.636124278293977496e-01
1.410000000000000000e+02,5.212200000000000166e-01,1.572759805849752723e-01
1.570000000000000000e+02,4.966566666666668017e-01,1.505757403259656568e-01
1.730000000000000000e+02,4.734166666666667633e-01,1.437917749394237166e-01
1.890000000000000000e+02,4.513533333333333841e-01,1.373733441325533100e-01
2.050000000000000000e+02,4.303733333333333300e-01,1.309396331911384659e-01
2.210000000000000000e+02,4.103066666666665419e-01,1.246683432796471952e-01
2.370000000000000000e+02,3.912599999999999967e-01,1.187735358890447818e-01
2.530000000000000000e+02,3.732999999999999097e-01,1.131936211191644920e-01
2.850000000000000000e+02,3.395433333333334192e-01,1.027766231414898035e-01
3.170000000000000000e+02,3.088400000000000589e-01,9.310737072197142195e-02
3.490000000000000000e+02,2.808700000000000085e-01,8.457296034010902686e-02
3.810000000000000000e+02,2.553633333333332756e-01,7.678457317821674177e-02
4.130000000000000000e+02,2.323266666666666813e-01,6.951246444087333387e-02
4.450000000000000000e+02,2.110766666666666902e-01,6.321304799471079428e-02
4.770000000000000000e+02,1.919666666666666466e-01,5.739265442205296330e-02
5.090000000000000000e+02,1.749200000000000199e-01,5.211369136403798397e-02
5.730000000000000000e+02,1.444533333333333502e-01,4.319140027217529404e-02
6.370000000000000000e+02,1.196033333333333393e-01,3.589492792268446364e-02
7.010000000000000000e+02,9.896000000000000629e-02,3.007119827205496226e-02
7.650000000000000000e+02,8.198666666666665215e-02,2.513760383244158236e-02
8.290000000000000000e+02,6.793333333333334556e-02,2.132442881691831021e-02
8.930000000000000000e+02,5.632566666666665584e-02,1.829191562211122599e-02
9.570000000000000000e+02,4.667933333333334350e-02,1.561896679291434158e-02
1.020000000000000000e+03,3.931766666666667437e-02,1.348865108752241374e-02
1.150000000000000000e+03,2.743533333333332894e-02,1.048237789992240328e-02
1.280000000000000000e+03,1.942266666666666794e-02,8.463594627756488784e-03
1.400000000000000000e+03,1.422700000000000180e-02,7.107563795242944314e-03
1.530000000000000000e+03,1.084933333333333236e-02,6.134154767581567053e-03
1.660000000000000000e+03,8.661333333333333384e-03,5.261282610984100924e-03
1.790000000000000000e+03,7.509999999999999315e-03,4.836749407152101526e-03
1.920000000000000000e+03,6.853450000000000514e-03,4.661473739047296630e-03
2.040000000000000000e+03,6.270079999999999057e-03,4.527925028196194863e-03
2.300000000000000000e+03,5.523666666666666308e-03,4.115402928556063412e-03
2.560000000000000000e+03,4.841866666666667408e-03,4.202937025079202076e-03
2.810000000000000000e+03,4.269966666666666355e-03,4.432348871207224435e-03
3.070000000000000000e+03,4.557133333333333695e-03,4.452937029479056043e-03
3.320000000000000000e+03,5.077666666666666093e-03,3.988173623423973274e-03
3.580000000000000000e+03,5.196599999999998269e-03,3.521323894846055142e-03
3.840000000000000000e+03,4.668666666666665584e-03,3.504316130178595709e-03
4.090000000000000000e+03,4.239766666666667030e-03,3.626950687355116280e-03
4.600000000000000000e+03,3.905333333333332706e-03,4.251844559825715582e-03
5.120000000000000000e+03,3.636066666666667481e-03,3.599298829545529398e-03
5.630000000000000000e+03,3.431299999999999541e-03,3.155898693251886315e-03
6.140000000000000000e+03,3.336633333333333031e-03,3.062019622939142569e-03
6.650000000000000000e+03,3.549400000000000732e-03,2.964535430255705109e-03
7.160000000000000000e+03,3.920416666666666668e-03,3.117177934815214876e-03
7.680000000000000000e+03,4.181873333333333172e-03,3.168892165599107320e-03
8.190000000000000000e+03,3.908433333333333377e-03,3.705511660731361859e-03
9.210000000000000000e+03,3.268200000000000185e-03,3.321033412077922277e-03
1.020000000000000000e+04,3.458666666666667180e-03,3.296134845472835015e-03
1.130000000000000000e+04,3.746766666666667082e-03,2.886885228579152626e-03
1.230000000000000000e+04,3.159976666666666854e-03,3.010852688672273347e-03
1.330000000000000000e+04,3.327666666666667140e-03,3.205658804023923947e-03
1.430000000000000000e+04,3.357600000000000948e-03,2.847289849954719697e-03
1.540000000000000000e+04,4.217770000000000026e-03,2.685363183701472943e-03
1.640000000000000000e+04,3.184066666666666469e-03,2.297180624806962473e-03
1.840000000000000000e+04,2.764666666666666574e-03,2.643949310032813263e-03
2.050000000000000000e+04,3.224600000000000643e-03,2.883570686397036228e-03
2.250000000000000000e+04,2.804066666666666773e-03,2.793788824410731696e-03
2.460000000000000000e+04,2.928466666666666111e-03,2.621160781729759033e-03
2.660000000000000000e+04,2.907600000000000635e-03,2.485946688473233013e-03
2.870000000000000000e+04,3.239699999999999438e-03,2.893316855122840970e-03
3.070000000000000000e+04,2.823830000000000263e-03,1.893169387315610892e-03
3.280000000000000000e+04,2.254166666666666905e-03,1.869604385283492147e-03
3.690000000000000000e+04,2.066866666666666418e-03,2.124116883161878376e-03
4.100000000000000000e+04,2.385560000000000111e-03,2.330431299670247813e-03
4.510000000000000000e+04,2.884400000000000071e-03,2.450751110761056287e-03
4.910000000000000000e+04,2.865966666666666489e-03,2.211232820183680128e-03
5.320000000000000000e+04,2.434766666666666850e-03,1.922958885341192938e-03
5.730000000000000000e+04,2.442729999999999294e-03,2.379508073060190940e-03
6.140000000000000000e+04,2.557333333333333767e-03,2.019830589231533160e-03
6.550000000000000000e+04,1.871966666666666614e-03,1.856063659790634047e-03
7.370000000000000000e+04,1.991833333333333303e-03,1.416655071622596046e-03
8.190000000000000000e+04,1.755000000000000050e-03,1.620196475952732917e-03
9.010000000000000000e+04,2.080866666666666542e-03,1.894349433106955497e-03
9.830000000000000000e+04,1.971613333333332822e-03,1.631925873851850471e-03
1.060000000000000000e+05,1.927100000000000384e-03,1.903264841954658334e-03
1.150000000000000000e+05,1.659366666666666325e-03,1.271513528839936843e-03
1.230000000000000000e+05,1.534406666666666844e-03,1.177514218065806029e-03
1.310000000000000000e+05,1.226570666666666493e-03,1.172144278229326044e-03
1.470000000000000000e+05,1.256499999999999805e-03,1.051092953335586036e-03
1.640000000000000000e+05,1.231400000000000116e-03,1.015864523957049625e-03
1.800000000000000000e+05,1.072016666666666821e-03,1.041442273164160407e-03
1.970000000000000000e+05,1.344433333333333071e-03,9.782206112977870436e-04
2.130000000000000000e+05,1.168574666666666881e-03,9.914982050229230633e-04
2.290000000000000000e+05,1.046443333333333357e-03,8.902102958380632512e-04
2.460000000000000000e+05,1.142350000000000093e-03,8.674179793283449741e-04
2.620000000000000000e+05,1.040583333333333464e-03,8.623359622453474109e-04
2.950000000000000000e+05,9.066666666666665150e-04,8.727833531920709898e-04
3.280000000000000000e+05,9.905200000000001590e-04,8.689724345455384150e-04
3.600000000000000000e+05,8.989266666666666196e-04,7.455026325415872431e-04
3.930000000000000000e+05,9.090000000000000857e-04,7.022785575637299684e-04
4.260000000000000000e+05,9.454246666666667968e-04,7.582085245281316652e-04
4.590000000000000000e+05,1.006966666666666730e-03,8.175972148601818234e-04
4.920000000000000000e+05,9.291333333333333302e-04,7.066626143887283062e-04
5.240000000000000000e+05,1.037266666666666762e-03,7.641794758198938243e-04
5.900000000000000000e+05,9.742466666666665422e-04,7.124015003824223308e-04
6.550000000000000000e+05,9.438666666666667687e-04,6.111485362277596211e-04
7.210000000000000000e+05,9.588266666666667203e-04,7.809186102380272308e-04
7.860000000000000000e+05,8.180173333333334677e-04,6.413207607093206414e-04
8.520000000000000000e+05,9.456199999999997724e-04,6.397006096065834110e-04
9.180000000000000000e+05,1.114253333333333103e-03,8.471559200758383692e-04
9.830000000000000000e+05,1.085666666666666638e-03,1.246183396403300041e-03
1.050000000000000000e+06,1.357653333333333490e-03,1.206449869697018892e-03
1.180000000000000000e+06,1.599669999999999868e-03,1.677811507055216146e-03
1.310000000000000000e+06,1.602766666666666359e-03,1.527680316877426002e-03
1.440000000000000000e+06,1.701186666666666897e-03,1.991051400596200501e-03
1.570000000000000000e+06,1.469633333333333512e-03,1.795817832773065033e-03
1.700000000000000000e+06,1.562313333333332794e-03,1.724327505241777993e-03
1.840000000000000000e+06,1.596233333333333228e-03,1.284858658088261453e-03
1.970000000000000000e+06,1.563533333333333355e-03,1.345439288173538991e-03
2.100000000000000000e+06,0.000000000000000000e+00,0.000000000000000000e+00
2.360000000000000000e+06,0.000000000000000000e+00,0.000000000000000000e+00
2.620000000000000000e+06,0.000000000000000000e+00,0.000000000000000000e+00
2.880000000000000000e+06,0.000000000000000000e+00,0.000000000000000000e+00
3.150000000000000000e+06,0.000000000000000000e+00,0.000000000000000000e+00
3.410000000000000000e+06,0.000000000000000000e+00,0.000000000000000000e+00
3.670000000000000000e+06,0.000000000000000000e+00,0.000000000000000000e+00
3.930000000000000000e+06,0.000000000000000000e+00,0.000000000000000000e+00
4.190000000000000000e+06,0.000000000000000000e+00,0.000000000000000000e+00
4.720000000000000000e+06,0.000000000000000000e+00,0.000000000000000000e+00
5.240000000000000000e+06,0.000000000000000000e+00,0.000000000000000000e+00
5.770000000000000000e+06,0.000000000000000000e+00,0.000000000000000000e+00
6.290000000000000000e+06,0.000000000000000000e+00,0.000000000000000000e+00
6.820000000000000000e+06,0.000000000000000000e+00,0.000000000000000000e+00
7.340000000000000000e+06,0.000000000000000000e+00,0.000000000000000000e+00
7.860000000000000000e+06,0.000000000000000000e+00,0.000000000000000000e+00
8.390000000000000000e+06,0.000000000000000000e+00,0.000000000000000000e+00
9.440000000000000000e+06,0.000000000000000000e+00,0.000000000000000000e+00
1.050000000000000000e+07,0.000000000000000000e+00,0.000000000000000000e+00
1.150000000000000000e+07,0.000000000000000000e+00,0.000000000000000000e+00
1.260000000000000000e+07,0.000000000000000000e+00,0.000000000000000000e+00
1.360000000000000000e+07,0.000000000000000000e+00,0.000000000000000000e+00
1.470000000000000000e+07,0.000000000000000000e+00,0.000000000000000000e+00
1.570000000000000000e+07,0.000000000000000000e+00,0.000000000000000000e+00
1.680000000000000000e+07,0.000000000000000000e+00,0.000000000000000000e+00
1.890000000000000000e+07,0.000000000000000000e+00,0.000000000000000000e+00
2.100000000000000000e+07,0.000000000000000000e+00,0.000000000000000000e+00
2.310000000000000000e+07,0.000000000000000000e+00,0.000000000000000000e+00
2.520000000000000000e+07,0.000000000000000000e+00,0.000000000000000000e+00
2.730000000000000000e+07,0.000000000000000000e+00,0.000000000000000000e+00
2.940000000000000000e+07,0.000000000000000000e+00,0.000000000000000000e+00
3.150000000000000000e+07,0.000000000000000000e+00,0.000000000000000000e+00
3.360000000000000000e+07,0.000000000000000000e+00,0.000000000000000000e+00
3.770000000000000000e+07,0.000000000000000000e+00,0.000000000000000000e+00
4.190000000000000000e+07,0.000000000000000000e+00,0.000000000000000000e+00
4.610000000000000000e+07,0.000000000000000000e+00,0.000000000000000000e+00
5.030000000000000000e+07,0.000000000000000000e+00,0.000000000000000000e+00
5.450000000000000000e+07,0.000000000000000000e+00,0.000000000000000000e+00
5.870000000000000000e+07,0.000000000000000000e+00,0.000000000000000000e+00
