X Lag Time,Record 1: BVs_3e10_000rpm_00-00min_NA_No1_230907 1,Record 2: BVs_3e10_000rpm_00-00min_NA_No1_230907 2,Record 3: BVs_3e10_000rpm_00-00min_NA_No1_230907 3,X Intensity,Record 1: BVs_3e10_000rpm_00-00min_NA_No1_230907 1,Record 2: BVs_3e10_000rpm_00-00min_NA_No1_230907 2,Record 3: BVs_3e10_000rpm_00-00min_NA_No1_230907 3
0.5,0.883,0.885,0.894,0.4,0,0,0
1,0.888,0.892,0.9,0.463,0,0,0
1.5,0.886,0.887,0.899,0.536,0,0,0
2,0.883,0.888,0.896,0.621,0,0,0
2.5,0.884,0.886,0.894,0.719,0,0,0
3,0.882,0.884,0.892,0.833,0,0,0
3.5,0.88,0.884,0.891,0.965,0,0,0
4,0.877,0.881,0.89,1.12,0,0,0
4.5,0.876,0.88,0.888,1.29,0,0,0
5.5,0.872,0.877,0.885,1.5,0,0,0
6.5,0.87,0.873,0.881,1.74,0,0,0
7.5,0.866,0.868,0.878,2.01,0,0,0
8.5,0.863,0.866,0.875,2.33,0,0,0
9.5,0.859,0.862,0.871,2.7,0,0,0
10.5,0.856,0.86,0.869,3.12,0,0,0
11.5,0.852,0.855,0.864,3.62,0,0,0
12.5,0.849,0.851,0.861,4.19,0,0,0
14.5,0.843,0.845,0.855,4.85,0,0,0
16.5,0.836,0.838,0.848,5.61,0,0,0
18.5,0.83,0.832,0.841,6.5,0,0,0
20.5,0.823,0.825,0.835,7.53,0,0,0
22.5,0.817,0.819,0.828,8.72,0,0,0
24.5,0.811,0.812,0.822,10.1,0,0,0
26.5,0.804,0.806,0.815,11.7,0,0,0
28.5,0.798,0.8,0.809,13.5,0,0,0
32.5,0.786,0.788,0.797,15.7,0,0,0
36.5,0.774,0.776,0.785,18.2,0,0,0
40.5,0.762,0.764,0.773,21,0,0,0
44.5,0.75,0.752,0.762,24.4,0,0,0
48.5,0.739,0.74,0.751,28.2,0,0,0
52.5,0.728,0.729,0.739,32.7,0,0,0
56.5,0.717,0.717,0.728,37.8,0,0,0
60.5,0.706,0.707,0.717,43.8,0,0,0
68.5,0.685,0.685,0.696,50.7,0,0,0
76.5,0.665,0.665,0.676,58.8,0,0,0
84.5,0.645,0.646,0.656,68.1,0.501,0.438,0.23
92.5,0.626,0.626,0.637,78.8,1.97,1.77,1.56
101,0.608,0.608,0.619,91.3,4.28,3.96,3.95
109,0.59,0.59,0.601,106,6.99,6.64,6.89
117,0.573,0.573,0.582,122,9.55,9.3,9.73
125,0.557,0.557,0.566,142,11.5,11.5,11.9
141,0.525,0.524,0.535,164,12.5,12.7,13
157,0.495,0.495,0.504,190,12.4,12.9,12.9
173,0.468,0.467,0.476,220,11.3,11.9,11.7
189,0.441,0.441,0.45,255,9.47,10.1,9.66
205,0.417,0.417,0.425,295,7.2,7.75,7.18
221,0.394,0.393,0.402,342,4.86,5.22,4.68
237,0.373,0.372,0.38,396,2.79,2.95,2.54
253,0.353,0.352,0.36,459,1.24,1.26,1.02
285,0.317,0.315,0.323,531,0.332,0.299,0.215
317,0.284,0.282,0.29,615,0,0,0
349,0.256,0.253,0.261,712,0,0,0
381,0.23,0.228,0.235,825,0,0,0
413,0.207,0.205,0.212,955,0,0,0
445,0.187,0.184,0.191,1.11E+03,0,0,0
477,0.17,0.166,0.173,1.28E+03,0,0,0
509,0.154,0.151,0.158,1.48E+03,0,0,0
573,0.128,0.124,0.131,1.72E+03,0,0,0
637,0.107,0.103,0.11,1.99E+03,0,0,0
701,0.0895,0.0861,0.0919,2.30E+03,0,0,0
765,0.0756,0.0727,0.0773,2.67E+03,0.0403,0,0.00642
829,0.064,0.0617,0.0653,3.09E+03,0.171,0,0.105
893,0.0548,0.0518,0.0551,3.58E+03,0.386,0.0259,0.308
957,0.0468,0.0435,0.0472,4.15E+03,0.643,0.172,0.576
1.02E+03,0.0403,0.0372,0.0407,4.80E+03,0.882,0.423,0.843
1.15E+03,0.0306,0.0269,0.031,5.56E+03,1.04,0.698,1.03
1.28E+03,0.0243,0.0192,0.0243,6.44E+03,0,0,0
1.40E+03,0.0207,0.0151,0.0207,7.46E+03,0,0,0
1.53E+03,0.0179,0.0133,0.0188,8.63E+03,0,0,0
1.66E+03,0.0155,0.0115,0.0167,,,,
1.79E+03,0.0124,0.011,0.0144,,,,
1.92E+03,0.0105,0.00978,0.0122,,,,
2.04E+03,0.00871,0.00818,0.0117,,,,
2.30E+03,0.00535,0.00569,0.0107,,,,
2.56E+03,0.00364,0.00437,0.00871,,,,
2.81E+03,0.00271,0.00331,0.00725,,,,
3.07E+03,0.00289,0.00316,0.00573,,,,
3.32E+03,0.0043,0.00382,0.00524,,,,
3.58E+03,0.00393,0.00588,0.00567,,,,
3.84E+03,0.00228,0.00717,0.0062,,,,
4.09E+03,0.00349,0.0074,0.00471,,,,
4.60E+03,0.00493,0.00471,0.0016,,,,
5.12E+03,0.00351,0.00487,0.00285,,,,
5.63E+03,0.00201,0.00485,0.00525,,,,
6.14E+03,0.0014,0.00606,0.00464,,,,
6.65E+03,0.00145,0.00306,0.00266,,,,
7.16E+03,0.00259,0.00224,0.00315,,,,
7.68E+03,0.00405,0.00518,0.00246,,,,
8.19E+03,0.00322,0.00545,0.00162,,,,
9.21E+03,0.00191,0.00215,0.00313,,,,
1.02E+04,0.00185,0.00405,0.00272,,,,
1.13E+04,0.00139,0.00234,0.00445,,,,
1.23E+04,0.00159,0.00361,0.00659,,,,
1.33E+04,0.00457,0.00376,0.00465,,,,
1.43E+04,0.00503,0.00256,0.00438,,,,
1.54E+04,0.00287,0.00281,0.00496,,,,
1.64E+04,0.00425,0.00331,0.00425,,,,
1.84E+04,0.000648,0.00409,0.00368,,,,
2.05E+04,0.00217,0.00327,0.0042,,,,
2.25E+04,0.00596,0.00123,0.00405,,,,
2.46E+04,0.00189,0.00203,0.00253,,,,
2.66E+04,0.00227,0.00382,0.00415,,,,
2.87E+04,0.00115,0.0039,0.00504,,,,
3.07E+04,0.00378,0.0019,0.00505,,,,
3.28E+04,0.00157,0.00229,0.00251,,,,
3.69E+04,0.00223,0.00147,0.00403,,,,
4.10E+04,0.00241,0.00129,0.00471,,,,
4.51E+04,0.00161,0.00282,0.00362,,,,
4.91E+04,0.0015,0.00272,0.00479,,,,
5.32E+04,0.00254,0.00176,0.00313,,,,
5.73E+04,0.0018,0.00139,0.00289,,,,
6.14E+04,0.00319,0.00174,0.00267,,,,
6.55E+04,0.00346,0.0007,0.00231,,,,
7.37E+04,0.00118,0.00141,0.0036,,,,
8.19E+04,0.0015,0.00142,0.00254,,,,
9.01E+04,0.00199,0.00178,0.00328,,,,
9.83E+04,0.00193,0.00138,0.00206,,,,
1.06E+05,0.00171,0.00274,0.00378,,,,
1.15E+05,0.00173,0.00134,0.00363,,,,
1.23E+05,0.00131,0.00114,0.0042,,,,
1.31E+05,0.00163,0.000983,0.00246,,,,
1.47E+05,0.00162,0.00148,0.0021,,,,
1.64E+05,0.00241,0.0023,0.00243,,,,
1.80E+05,0.000628,0.00135,0.0025,,,,
1.97E+05,0.00207,0.00124,0.00373,,,,
2.13E+05,0.00187,0.00119,0.00287,,,,
2.29E+05,0.000996,0.00241,0.00295,,,,
2.46E+05,0.000911,0.00125,0.00232,,,,
2.62E+05,0.00094,0.00167,0.0015,,,,
2.95E+05,0.00124,0.00121,0.00256,,,,
3.28E+05,0.00148,0.00134,0.0016,,,,
3.60E+05,0.00213,0.000851,0.00225,,,,
3.93E+05,0.00137,0.000885,0.00233,,,,
4.26E+05,0.00204,0.00176,0.00189,,,,
4.59E+05,0.00127,0.000748,0.00162,,,,
4.92E+05,0.00165,0.000278,0.0021,,,,
5.24E+05,0.000678,0.00116,0.00159,,,,
5.90E+05,0.00062,0.00112,0.00153,,,,
6.55E+05,0.000863,0.000587,0.00216,,,,
7.21E+05,0.000808,0.001,0.000931,,,,
7.86E+05,0.00106,0.000977,0.00182,,,,
8.52E+05,0.000484,0.000625,0.00114,,,,
9.18E+05,0.000853,0.000932,0.000679,,,,
9.83E+05,0.000631,0.000742,0.00138,,,,
1.05E+06,0.00135,0.000549,0.00108,,,,
1.18E+06,0.00154,0.000624,0.000719,,,,
1.31E+06,0.000889,0.000885,0.000835,,,,
1.44E+06,0.00148,6.72E-05,0.000969,,,,
1.57E+06,0.000411,0.000243,0.00086,,,,
1.70E+06,0.000911,0.000818,0.000955,,,,
1.84E+06,0.000671,0.000722,0.000847,,,,
1.97E+06,0.00019,0.000951,0.0012,,,,
2.10E+06,0.000702,0.000504,0.000517,,,,
2.36E+06,0.00207,0.000111,0.000826,,,,
2.62E+06,0.00273,0.000883,0.000784,,,,
2.88E+06,0.00178,0.000848,0.000838,,,,
3.15E+06,0.0023,0,0.000857,,,,
3.41E+06,0.00231,0.000885,0.0011,,,,
3.67E+06,0.00223,0.000769,0.000584,,,,
3.93E+06,0.00193,0.000597,0.000637,,,,
4.19E+06,0,0,0,,,,
4.72E+06,0,0,0,,,,
5.24E+06,0,0,0,,,,
5.77E+06,0,0,0,,,,
6.29E+06,0,0,0,,,,
6.82E+06,0,0,0,,,,
7.34E+06,0,0,0,,,,
7.86E+06,0,0,0,,,,
8.39E+06,0,0,0,,,,
9.44E+06,0,0,0,,,,
1.05E+07,0,0,0,,,,
1.15E+07,0,0,0,,,,
1.26E+07,0,0,0,,,,
1.36E+07,0,0,0,,,,
1.47E+07,0,0,0,,,,
1.57E+07,0,0,0,,,,
1.68E+07,0,0,0,,,,
1.89E+07,0,0,0,,,,
2.10E+07,0,0,0,,,,
2.31E+07,0,0,0,,,,
2.52E+07,0,0,0,,,,
2.73E+07,0,0,0,,,,
2.94E+07,0,0,0,,,,
3.15E+07,0,0,0,,,,
3.36E+07,0,0,0,,,,
3.77E+07,0,0,0,,,,
4.19E+07,0,0,0,,,,
4.61E+07,0,0,0,,,,
5.03E+07,0,0,0,,,,
5.45E+07,0,0,0,,,,
5.87E+07,0,0,0,,,,