X Lag Time,Record 1: EVs_3e10_300rpm_00-30min_ST_No1_230911 1,Record 2: EVs_3e10_300rpm_00-30min_ST_No1_230911 2,Record 3: EVs_3e10_300rpm_00-30min_ST_No1_230911 3,X Intensity,Record 1: EVs_3e10_300rpm_00-30min_ST_No1_230911 1,Record 2: EVs_3e10_300rpm_00-30min_ST_No1_230911 2,Record 3: EVs_3e10_300rpm_00-30min_ST_No1_230911 3
0.5,0.865,0.863,0.869,0.4,0,0,0
1,0.871,0.868,0.874,0.463,0,0,0
1.5,0.868,0.865,0.87,0.536,0,0,0
2,0.864,0.861,0.869,0.621,0,0,0
2.5,0.865,0.862,0.867,0.719,0,0,0
3,0.862,0.859,0.865,0.833,0,0,0
3.5,0.859,0.857,0.863,0.965,0,0,0
4,0.857,0.855,0.862,1.12,0,0,0
4.5,0.856,0.853,0.859,1.29,0,0,0
5.5,0.851,0.848,0.854,1.5,0,0,0
6.5,0.847,0.845,0.85,1.74,0,0,0
7.5,0.842,0.841,0.846,2.01,0,0,0
8.5,0.839,0.837,0.842,2.33,0,0,0
9.5,0.835,0.833,0.838,2.7,0,0,0
10.5,0.831,0.829,0.833,3.12,0,0,0
11.5,0.827,0.826,0.828,3.62,0,0,0
12.5,0.822,0.821,0.825,4.19,0,0,0
14.5,0.815,0.813,0.816,4.85,0,0,0
16.5,0.807,0.805,0.809,5.61,0,0,0
18.5,0.8,0.797,0.801,6.5,0,0,0
20.5,0.793,0.79,0.794,7.53,0,0,0
22.5,0.786,0.783,0.787,8.72,0,0,0
24.5,0.777,0.776,0.778,10.1,0,0,0
26.5,0.771,0.768,0.771,11.7,0,0,0
28.5,0.764,0.762,0.764,13.5,0,0,0
32.5,0.75,0.747,0.749,15.7,0,0,0
36.5,0.737,0.734,0.735,18.2,0,0,0
40.5,0.723,0.72,0.722,21,0,0.0867,0
44.5,0.71,0.707,0.708,24.4,0,0.195,0
48.5,0.698,0.695,0.695,28.2,0,0.255,0
52.5,0.685,0.682,0.683,32.7,0,0.306,0.113
56.5,0.673,0.67,0.67,37.8,0.194,0.46,0.4
60.5,0.662,0.658,0.658,43.8,0.702,0.832,0.847
68.5,0.639,0.635,0.634,50.7,1.5,1.49,1.45
76.5,0.617,0.614,0.611,58.8,2.51,2.42,2.25
84.5,0.596,0.593,0.59,68.1,3.69,3.56,3.28
92.5,0.576,0.572,0.569,78.8,4.96,4.79,4.54
101,0.557,0.554,0.549,91.3,6.27,6,5.99
109,0.538,0.535,0.53,106,7.54,7.08,7.48
117,0.521,0.518,0.512,122,8.65,7.91,8.84
125,0.504,0.501,0.494,142,9.48,8.45,9.85
141,0.472,0.469,0.461,164,9.89,8.65,10.3
157,0.442,0.439,0.431,190,9.79,8.5,10.2
173,0.415,0.412,0.402,220,9.13,8.04,9.45
189,0.39,0.387,0.377,255,7.96,7.28,8.13
205,0.366,0.364,0.353,295,6.39,6.31,6.42
221,0.344,0.342,0.33,342,4.63,5.19,4.57
237,0.324,0.322,0.31,396,2.91,4.01,2.83
253,0.305,0.304,0.291,459,1.47,2.87,1.41
285,0.272,0.271,0.257,531,0.492,1.85,0.48
317,0.243,0.242,0.228,615,0.042,1.02,0.053
349,0.218,0.217,0.202,712,0,0.439,0
381,0.196,0.195,0.18,825,0,0.112,0
413,0.177,0.176,0.161,955,0,0,0
445,0.16,0.159,0.144,1.11E+03,0,0,0
477,0.145,0.144,0.129,1.28E+03,0,0,0
509,0.132,0.131,0.117,1.48E+03,0,0,0
573,0.109,0.109,0.0942,1.72E+03,0,0,0
637,0.0921,0.0916,0.0761,1.99E+03,0,0,0
701,0.0778,0.0775,0.0622,2.30E+03,0,0,0
765,0.0666,0.0659,0.0514,2.67E+03,0,0,0
829,0.0573,0.0563,0.0425,3.09E+03,0,0.0333,0
893,0.0494,0.0488,0.0351,3.58E+03,0,0.151,0.0493
957,0.0426,0.0425,0.0291,4.15E+03,0.169,0.35,0.171
1.02E+03,0.0371,0.0379,0.0245,4.80E+03,0.567,0.583,0.337
1.15E+03,0.0291,0.0295,0.0185,5.56E+03,1.08,0.784,0.496
1.28E+03,0.0245,0.022,0.0161,6.44E+03,0,0,0
1.40E+03,0.0207,0.0165,0.0135,7.46E+03,0,0,0
1.53E+03,0.0174,0.0136,0.0121,8.63E+03,0,0,0
1.66E+03,0.0143,0.0117,0.011,,,,
1.79E+03,0.0124,0.0103,0.00975,,,,
1.92E+03,0.0114,0.00929,0.00914,,,,
2.04E+03,0.0105,0.00833,0.00963,,,,
2.30E+03,0.0102,0.00823,0.00917,,,,
2.56E+03,0.0115,0.00641,0.00782,,,,
2.81E+03,0.0109,0.00368,0.006,,,,
3.07E+03,0.0105,0.00405,0.00539,,,,
3.32E+03,0.0107,0.00446,0.00468,,,,
3.58E+03,0.00996,0.00395,0.00417,,,,
3.84E+03,0.00891,0.0043,0.00402,,,,
4.09E+03,0.00759,0.00444,0.00357,,,,
4.60E+03,0.00784,0.00387,0.00414,,,,
5.12E+03,0.00654,0.00268,0.00377,,,,
5.63E+03,0.00807,0.00296,0.00343,,,,
6.14E+03,0.00585,0.00429,0.0052,,,,
6.65E+03,0.00695,0.00467,0.00501,,,,
7.16E+03,0.00704,0.00371,0.00496,,,,
7.68E+03,0.00701,0.00449,0.00461,,,,
8.19E+03,0.00644,0.00436,0.00361,,,,
9.21E+03,0.00626,0.00547,0.00363,,,,
1.02E+04,0.00854,0.00523,0.00422,,,,
1.13E+04,0.00795,0.00374,0.00362,,,,
1.23E+04,0.00732,0.0027,0.00264,,,,
1.33E+04,0.00963,0.0025,0.00455,,,,
1.43E+04,0.00637,0.00389,0.00244,,,,
1.54E+04,0.00572,0.00399,0.00211,,,,
1.64E+04,0.00735,0.00238,0.00228,,,,
1.84E+04,0.00646,0.00365,0.00385,,,,
2.05E+04,0.00644,0.00303,0.00337,,,,
2.25E+04,0.00868,0.00431,0.00308,,,,
2.46E+04,0.00746,0.00438,0.00221,,,,
2.66E+04,0.00722,0.00274,0.00333,,,,
2.87E+04,0.00692,0.00407,0.00284,,,,
3.07E+04,0.00634,0.00484,0.00234,,,,
3.28E+04,0.00662,0.00422,0.00444,,,,
3.69E+04,0.00468,0.00386,0.00337,,,,
4.10E+04,0.00658,0.00446,0.00355,,,,
4.51E+04,0.00598,0.00267,0.00471,,,,
4.91E+04,0.0065,0.00321,0.00245,,,,
5.32E+04,0.0053,0.00307,0.00333,,,,
5.73E+04,0.00498,0.00291,0.00413,,,,
6.14E+04,0.00628,0.00266,0.00431,,,,
6.55E+04,0.00668,0.00337,0.00367,,,,
7.37E+04,0.00571,0.00369,0.00365,,,,
8.19E+04,0.00504,0.00237,0.00401,,,,
9.01E+04,0.00608,0.00205,0.00456,,,,
9.83E+04,0.00518,0.00356,0.00336,,,,
1.06E+05,0.00454,0.00321,0.00328,,,,
1.15E+05,0.00493,0.00255,0.00234,,,,
1.23E+05,0.00485,0.00356,0.00329,,,,
1.31E+05,0.00385,0.00258,0.00281,,,,
1.47E+05,0.00437,0.00225,0.00254,,,,
1.64E+05,0.00493,0.0031,0.0021,,,,
1.80E+05,0.00419,0.00234,0.00291,,,,
1.97E+05,0.0038,0.00119,0.0023,,,,
2.13E+05,0.00352,0.00166,0.00274,,,,
2.29E+05,0.00311,0.00104,0.00275,,,,
2.46E+05,0.00334,0.00143,0.00277,,,,
2.62E+05,0.00285,0.00126,0.00229,,,,
2.95E+05,0.00257,0.000969,0.00224,,,,
3.28E+05,0.00284,0.000924,0.00221,,,,
3.60E+05,0.0035,0.00161,0.00242,,,,
3.93E+05,0.0034,0.000801,0.00215,,,,
4.26E+05,0.00327,0.00168,0.00155,,,,
4.59E+05,0.00265,0.000583,0.0015,,,,
4.92E+05,0.00254,0.0011,0.00139,,,,
5.24E+05,0.00284,0.00163,0.00182,,,,
5.90E+05,0.00228,0.00183,0.00186,,,,
6.55E+05,0.00286,0.00181,0.00188,,,,
7.21E+05,0.00378,0.00165,0.00155,,,,
7.86E+05,0.00336,0.00164,0.00148,,,,
8.52E+05,0.00372,0.00164,0.00121,,,,
9.18E+05,0.00237,0.00166,0.00108,,,,
9.83E+05,0.00377,0.00199,0.00144,,,,
1.05E+06,0.00401,0.0017,0.000878,,,,
1.18E+06,0.00377,0.0016,0.00129,,,,
1.31E+06,0.00178,0.00152,0.00114,,,,
1.44E+06,0.00312,0.000937,0.00163,,,,
1.57E+06,0.00238,0.000675,0.00138,,,,
1.70E+06,0.00269,0.00161,0.00105,,,,
1.84E+06,0.0027,0.00116,0.00161,,,,
1.97E+06,0.00294,0.00154,0.00139,,,,
2.10E+06,0.00368,0.000544,0.000229,,,,
2.36E+06,0.00272,0.00114,0.00059,,,,
2.62E+06,0.00162,0.00212,0.00101,,,,
2.88E+06,0.00124,0.00228,3.23E-05,,,,
3.15E+06,0.00197,0.00333,0.000112,,,,
3.41E+06,0.00262,0.0012,0.000114,,,,
3.67E+06,0.00269,0.00277,0.000376,,,,
3.93E+06,0.00203,0.00225,0.00032,,,,
4.19E+06,0,0,0,,,,
4.72E+06,0,0,0,,,,
5.24E+06,0,0,0,,,,
5.77E+06,0,0,0,,,,
6.29E+06,0,0,0,,,,
6.82E+06,0,0,0,,,,
7.34E+06,0,0,0,,,,
7.86E+06,0,0,0,,,,
8.39E+06,0,0,0,,,,
9.44E+06,0,0,0,,,,
1.05E+07,0,0,0,,,,
1.15E+07,0,0,0,,,,
1.26E+07,0,0,0,,,,
1.36E+07,0,0,0,,,,
1.47E+07,0,0,0,,,,
1.57E+07,0,0,0,,,,
1.68E+07,0,0,0,,,,
1.89E+07,0,0,0,,,,
2.10E+07,0,0,0,,,,
2.31E+07,0,0,0,,,,
2.52E+07,0,0,0,,,,
2.73E+07,0,0,0,,,,
2.94E+07,0,0,0,,,,
3.15E+07,0,0,0,,,,
3.36E+07,0,0,0,,,,
3.77E+07,0,0,0,,,,
4.19E+07,0,0,0,,,,
4.61E+07,0,0,0,,,,
5.03E+07,0,0,0,,,,
5.45E+07,0,0,0,,,,
5.87E+07,0,0,0,,,,