X Lag Time,Record 1: EVs_3e10_PS2_500ug_000rpm_00-00min_NA_No1_230918 1,Record 2: EVs_3e10_PS2_500ug_000rpm_00-00min_NA_No1_230918 2,Record 3: EVs_3e10_PS2_500ug_000rpm_00-00min_NA_No1_230918 3,X Intensity,Record 1: EVs_3e10_PS2_500ug_000rpm_00-00min_NA_No1_230918 1,Record 2: EVs_3e10_PS2_500ug_000rpm_00-00min_NA_No1_230918 2,Record 3: EVs_3e10_PS2_500ug_000rpm_00-00min_NA_No1_230918 3
0.5,0.889,0.899,0.895,0.4,0,0,0
1,0.89,0.904,0.901,0.463,0,0,0
1.5,0.888,0.897,0.893,0.536,0,0,0
2,0.886,0.894,0.891,0.621,0,0,0
2.5,0.881,0.894,0.889,0.719,0,0,0
3,0.879,0.89,0.887,0.833,0,0,0
3.5,0.875,0.886,0.884,0.965,0,0,0
4,0.872,0.883,0.88,1.12,0,0,0
4.5,0.869,0.879,0.875,1.29,0,0,0
5.5,0.862,0.875,0.871,1.5,0,0,0
6.5,0.858,0.869,0.864,1.74,0,0,0
7.5,0.854,0.864,0.858,2.01,0,0,0
8.5,0.845,0.856,0.854,2.33,0,0,0
9.5,0.842,0.853,0.847,2.7,0,0,0
10.5,0.837,0.848,0.843,3.12,0,0,0
11.5,0.831,0.842,0.836,3.62,0,0,0
12.5,0.826,0.837,0.833,4.19,0,0,0
14.5,0.815,0.826,0.822,4.85,0,0,0
16.5,0.806,0.817,0.811,5.61,0,0,0
18.5,0.796,0.807,0.802,6.5,0,0,0
20.5,0.786,0.797,0.792,7.53,0,0,0
22.5,0.778,0.787,0.782,8.72,0,0,0
24.5,0.768,0.779,0.773,10.1,0,0,0
26.5,0.76,0.77,0.765,11.7,0,0,0
28.5,0.751,0.762,0.756,13.5,0,0,0
32.5,0.734,0.745,0.738,15.7,0,0,0
36.5,0.718,0.73,0.722,18.2,0,0,0
40.5,0.703,0.714,0.708,21,0,0,0
44.5,0.688,0.699,0.691,24.4,0,0,0
48.5,0.674,0.684,0.678,28.2,0,0.0307,0
52.5,0.66,0.67,0.663,32.7,0,0.105,0
56.5,0.647,0.657,0.65,37.8,0,0.231,0
60.5,0.635,0.644,0.637,43.8,0,0.464,0
68.5,0.609,0.619,0.612,50.7,0.432,0.907,0.435
76.5,0.587,0.596,0.589,58.8,1.61,1.67,1.48
84.5,0.564,0.574,0.565,68.1,3.43,2.84,3.12
92.5,0.543,0.553,0.544,78.8,5.62,4.4,5.14
101,0.523,0.532,0.524,91.3,7.8,6.23,7.29
109,0.504,0.513,0.504,106,9.66,8.13,9.25
117,0.486,0.494,0.486,122,10.9,9.83,10.7
125,0.468,0.477,0.468,142,11.5,11.1,11.6
141,0.436,0.444,0.435,164,11.2,11.6,11.6
157,0.406,0.413,0.404,190,10.3,11.3,10.9
173,0.378,0.385,0.376,220,8.73,10.1,9.45
189,0.352,0.358,0.35,255,6.86,8.35,7.56
205,0.329,0.335,0.326,295,4.89,6.16,5.47
221,0.307,0.312,0.304,342,3.06,3.92,3.46
237,0.287,0.292,0.283,396,1.58,1.99,1.8
253,0.269,0.273,0.265,459,0.587,0.657,0.657
285,0.237,0.239,0.231,531,0.1,0.045,0.101
317,0.207,0.21,0.201,615,0,0,0
349,0.182,0.185,0.177,712,0,0,0
381,0.16,0.163,0.155,825,0,0,0
413,0.142,0.144,0.136,955,0,0,0
445,0.127,0.127,0.12,1.11E+03,0,0,0
477,0.113,0.113,0.105,1.28E+03,0,0,0
509,0.101,0.101,0.0929,1.48E+03,0,0,0
573,0.081,0.0789,0.0727,1.72E+03,0,0,0
637,0.0656,0.0621,0.0573,1.99E+03,0,0,0
701,0.0529,0.0489,0.0458,2.30E+03,0,0,0
765,0.0429,0.0387,0.0366,2.67E+03,0,0,0
829,0.0358,0.03,0.0286,3.09E+03,0.0406,0,0
893,0.0295,0.0239,0.0229,3.58E+03,0.161,0,0
957,0.0245,0.0193,0.0185,4.15E+03,0.346,0,0
1.02E+03,0.0201,0.0161,0.0148,4.80E+03,0.551,0,0
1.15E+03,0.0127,0.0108,0.0095,5.56E+03,0.714,0,0
1.28E+03,0.00938,0.00684,0.00624,6.44E+03,0,0,0
1.40E+03,0.00867,0.00596,0.00367,7.46E+03,0,0,0
1.53E+03,0.00667,0.00611,0.00203,8.63E+03,0,0,0
1.66E+03,0.00449,0.00473,0.00141,,,,
1.79E+03,0.00288,0.00337,0.000881,,,,
1.92E+03,0.00287,0.00268,0.00177,,,,
2.04E+03,0.00323,0.0029,0.00173,,,,
2.30E+03,0.00245,0.00217,0.00136,,,,
2.56E+03,0.00214,0.00174,0.00169,,,,
2.81E+03,0.00224,0.0013,0.0021,,,,
3.07E+03,0.00464,0.00149,0.00451,,,,
3.32E+03,0.00698,0.00152,0.00419,,,,
3.58E+03,0.00555,0.00236,0.00321,,,,
3.84E+03,0.00342,0.00306,0.00345,,,,
4.09E+03,0.003,0.00263,0.00316,,,,
4.60E+03,0.00195,0.00114,0.000696,,,,
5.12E+03,0.000659,0.00197,0.00153,,,,
5.63E+03,0.00142,0.003,0.00228,,,,
6.14E+03,0.00114,0.00245,0.00105,,,,
6.65E+03,0.00112,0.00238,0.00118,,,,
7.16E+03,0.000931,0.00494,0.000719,,,,
7.68E+03,0.00165,0.00332,0.00144,,,,
8.19E+03,0.000972,0.00233,0.00158,,,,
9.21E+03,0.00145,0.00108,0.00133,,,,
1.02E+04,0.0019,0.00172,0.000701,,,,
1.13E+04,0.00167,0.00319,0.00355,,,,
1.23E+04,0.000963,0.00281,0.00175,,,,
1.33E+04,0.000121,0.00373,0.000922,,,,
1.43E+04,0,0.00217,0.00123,,,,
1.54E+04,0.000415,0.00186,0.00141,,,,
1.64E+04,0.000583,0.00276,0.00215,,,,
1.84E+04,0.00149,0.00156,0.00183,,,,
2.05E+04,0.000681,0.000801,0.000449,,,,
2.25E+04,0.00124,0.00081,0.00123,,,,
2.46E+04,0.00156,0.000574,0.000666,,,,
2.66E+04,0.0025,0.000608,0.000691,,,,
2.87E+04,0.00202,0.000827,0.00164,,,,
3.07E+04,0.00129,0.000885,0.00223,,,,
3.28E+04,0.00116,0.000779,0.000868,,,,
3.69E+04,0.000841,0.00133,0.00109,,,,
4.10E+04,0.000643,0.00174,0.00192,,,,
4.51E+04,0.000851,0.000522,0.0011,,,,
4.91E+04,0.000674,0.00104,0.000818,,,,
5.32E+04,0.000348,0.000822,0.00034,,,,
5.73E+04,0.00104,0.000747,0.000905,,,,
6.14E+04,0.000602,0.0018,0.00146,,,,
6.55E+04,0.00104,0.00111,0.000482,,,,
7.37E+04,0.00102,0.000827,0.000526,,,,
8.19E+04,0.00127,0.000517,0.00116,,,,
9.01E+04,0.00153,0.000336,0.00123,,,,
9.83E+04,0.000785,0.000202,0.000399,,,,
1.06E+05,0.000125,0.000375,0.000617,,,,
1.15E+05,0.000965,0.000755,0.00123,,,,
1.23E+05,0.000923,0.000635,0.000169,,,,
1.31E+05,0.000235,0.000332,0.000237,,,,
1.47E+05,0.000796,0.000373,0.000388,,,,
1.64E+05,0.000475,0.00081,0.000598,,,,
1.80E+05,0.000642,0.000578,0.000298,,,,
1.97E+05,0.00086,0.000488,0.000704,,,,
2.13E+05,0.000694,0.00059,0.00116,,,,
2.29E+05,0.000302,0.000193,0.000603,,,,
2.46E+05,0.000703,0.00038,0.000609,,,,
2.62E+05,0.000563,0.000276,0.000901,,,,
2.95E+05,0.000567,0.000344,0.000467,,,,
3.28E+05,0.000405,0.00044,0.000476,,,,
3.60E+05,0.000328,0.000595,0.000395,,,,
3.93E+05,0.000559,0.000459,0.0012,,,,
4.26E+05,0.000563,0.000305,0.00114,,,,
4.59E+05,0.000544,0.000654,0.000809,,,,
4.92E+05,0.00108,0.000331,0.000367,,,,
5.24E+05,0.00036,0.000633,0.000812,,,,
5.90E+05,0.000472,0.000424,0.000959,,,,
6.55E+05,0.000396,0.00015,0.000533,,,,
7.21E+05,0.000182,0.000544,0.000381,,,,
7.86E+05,0.000583,0.000266,0.000619,,,,
8.52E+05,0.000393,0.000506,0.000503,,,,
9.18E+05,0.000309,0.000703,0.000787,,,,
9.83E+05,0.00083,0.000621,0.0014,,,,
1.05E+06,9.28E-05,0.000525,0.000784,,,,
1.18E+06,0.000249,0.000564,8.48E-06,,,,
1.31E+06,0.000167,0.000408,0.000476,,,,
1.44E+06,0.000457,0.000819,0.000317,,,,
1.57E+06,0.00056,0.000896,0.000148,,,,
1.70E+06,0.000445,0.000793,0.000602,,,,
1.84E+06,0.000538,0.000433,0.000469,,,,
1.97E+06,0.000802,0.000725,0.000296,,,,
2.10E+06,0.000561,0.000955,0.000943,,,,
2.36E+06,0.000614,0.000999,0.000698,,,,
2.62E+06,0.000851,0.000592,0.00121,,,,
2.88E+06,0.000138,0.00162,0.00102,,,,
3.15E+06,4.93E-05,0.00131,0.000139,,,,
3.41E+06,0.000456,0.000853,0.000229,,,,
3.67E+06,0.000646,0.00145,0.00187,,,,
3.93E+06,0.000849,0.00102,1.84E-05,,,,
4.19E+06,0,0,0,,,,
4.72E+06,0,0,0,,,,
5.24E+06,0,0,0,,,,
5.77E+06,0,0,0,,,,
6.29E+06,0,0,0,,,,
6.82E+06,0,0,0,,,,
7.34E+06,0,0,0,,,,
7.86E+06,0,0,0,,,,
8.39E+06,0,0,0,,,,
9.44E+06,0,0,0,,,,
1.05E+07,0,0,0,,,,
1.15E+07,0,0,0,,,,
1.26E+07,0,0,0,,,,
1.36E+07,0,0,0,,,,
1.47E+07,0,0,0,,,,
1.57E+07,0,0,0,,,,
1.68E+07,0,0,0,,,,
1.89E+07,0,0,0,,,,
2.10E+07,0,0,0,,,,
2.31E+07,0,0,0,,,,
2.52E+07,0,0,0,,,,
2.73E+07,0,0,0,,,,
2.94E+07,0,0,0,,,,
3.15E+07,0,0,0,,,,
3.36E+07,0,0,0,,,,
3.77E+07,0,0,0,,,,
4.19E+07,0,0,0,,,,
4.61E+07,0,0,0,,,,
5.03E+07,0,0,0,,,,
5.45E+07,0,0,0,,,,
5.87E+07,0,0,0,,,,