X Lag Time,Record 1: EVs_3e10_PO1_050ug_000rpm_00-00min_NA_No1_230925 1,Record 2: EVs_3e10_PO1_050ug_000rpm_00-00min_NA_No1_230925 2,Record 3: EVs_3e10_PO1_050ug_000rpm_00-00min_NA_No1_230925 3,X Intensity,Record 1: EVs_3e10_PO1_050ug_000rpm_00-00min_NA_No1_230925 1,Record 2: EVs_3e10_PO1_050ug_000rpm_00-00min_NA_No1_230925 2,Record 3: EVs_3e10_PO1_050ug_000rpm_00-00min_NA_No1_230925 3
0.5,0.902,0.91,0.903,0.4,0,0,0
1,0.906,0.916,0.908,0.463,0,0,0
1.5,0.901,0.913,0.907,0.536,0,0,0
2,0.9,0.911,0.904,0.621,0,0,0
2.5,0.897,0.91,0.9,0.719,0,0,0
3,0.895,0.907,0.899,0.833,0,0,0
3.5,0.895,0.906,0.896,0.965,0,0,0
4,0.89,0.901,0.894,1.12,0,0,0
4.5,0.888,0.898,0.893,1.29,0,0,0
5.5,0.885,0.895,0.889,1.5,0,0,0
6.5,0.881,0.892,0.884,1.74,0,0,0
7.5,0.874,0.887,0.88,2.01,0,0,0
8.5,0.872,0.883,0.876,2.33,0,0,0
9.5,0.866,0.878,0.871,2.7,0,0,0
10.5,0.862,0.874,0.868,3.12,0,0,0
11.5,0.856,0.87,0.862,3.62,0,0,0
12.5,0.853,0.866,0.858,4.19,0,0,0
14.5,0.844,0.856,0.85,4.85,0,0,0
16.5,0.836,0.848,0.842,5.61,0,0,0
18.5,0.827,0.84,0.834,6.5,0,0,0
20.5,0.82,0.832,0.825,7.53,0,0,0
22.5,0.812,0.823,0.817,8.72,0,0,0
24.5,0.802,0.817,0.809,10.1,0,0,0
26.5,0.796,0.809,0.802,11.7,0,0,0
28.5,0.787,0.802,0.794,13.5,0,0,0
32.5,0.772,0.786,0.779,15.7,0.00163,0,0
36.5,0.756,0.772,0.765,18.2,0.134,0,0
40.5,0.742,0.757,0.75,21,0.339,0,0
44.5,0.728,0.744,0.736,24.4,0.51,0,0
48.5,0.713,0.73,0.723,28.2,0.572,0,0
52.5,0.7,0.717,0.71,32.7,0.523,0,0
56.5,0.686,0.704,0.697,37.8,0.443,0,0
60.5,0.674,0.691,0.684,43.8,0.472,0,0
68.5,0.649,0.666,0.659,50.7,0.767,0,0.372
76.5,0.625,0.643,0.636,58.8,1.45,0.488,1.38
84.5,0.602,0.62,0.614,68.1,2.58,1.88,3.07
92.5,0.58,0.599,0.592,78.8,4.11,4.14,5.28
101,0.559,0.579,0.571,91.3,5.89,6.93,7.67
109,0.54,0.559,0.551,106,7.71,9.7,9.88
117,0.52,0.54,0.533,122,9.31,11.9,11.5
125,0.502,0.522,0.515,142,10.5,13.2,12.3
141,0.468,0.488,0.481,164,11,13.2,12.1
157,0.436,0.457,0.449,190,10.8,12,10.9
173,0.407,0.429,0.42,220,9.83,9.91,8.94
189,0.38,0.402,0.393,255,8.3,7.22,6.55
205,0.354,0.378,0.369,295,6.4,4.47,4.13
221,0.332,0.355,0.346,342,4.4,2.16,2.08
237,0.311,0.333,0.324,396,2.57,0.636,0.678
253,0.291,0.314,0.305,459,1.17,0,0.0446
285,0.256,0.278,0.27,531,0.315,0,0
317,0.226,0.247,0.24,615,0,0,0
349,0.2,0.22,0.213,712,0,0,0
381,0.177,0.196,0.19,825,0,0,0
413,0.157,0.176,0.171,955,0,0,0
445,0.139,0.158,0.153,1.11E+03,0,0,0
477,0.124,0.142,0.138,1.28E+03,0,0,0
509,0.111,0.129,0.125,1.48E+03,0,0,0
573,0.0883,0.106,0.102,1.72E+03,0,0,0
637,0.0702,0.0886,0.0845,1.99E+03,0,0,0
701,0.0565,0.0741,0.0708,2.30E+03,0,0,0
765,0.0461,0.0622,0.0597,2.67E+03,0,0,0
829,0.0378,0.0532,0.0507,3.09E+03,0,0,0
893,0.0309,0.0455,0.0436,3.58E+03,0,0,0.0899
957,0.0255,0.0392,0.0381,4.15E+03,0,0.186,0.442
1.02E+03,0.0209,0.0344,0.0335,4.80E+03,0,0.658,1.01
1.15E+03,0.014,0.028,0.0268,5.56E+03,0,1.28,1.62
1.28E+03,0.0105,0.025,0.0228,6.44E+03,0,0,0
1.40E+03,0.00933,0.0208,0.02,7.46E+03,0,0,0
1.53E+03,0.0076,0.0162,0.0161,8.63E+03,0,0,0
1.66E+03,0.00584,0.0138,0.0136,,,,
1.79E+03,0.00388,0.0131,0.0124,,,,
1.92E+03,0.00339,0.0122,0.0121,,,,
2.04E+03,0.0033,0.0119,0.0125,,,,
2.30E+03,0.00271,0.013,0.0119,,,,
2.56E+03,0.00209,0.0114,0.0101,,,,
2.81E+03,0.00186,0.00955,0.00856,,,,
3.07E+03,0.00146,0.00797,0.00642,,,,
3.32E+03,0.00245,0.00885,0.00666,,,,
3.58E+03,0.00388,0.00909,0.00594,,,,
3.84E+03,0.00296,0.00989,0.00598,,,,
4.09E+03,0.00302,0.00967,0.00628,,,,
4.60E+03,0.00289,0.00846,0.00645,,,,
5.12E+03,0.00275,0.00648,0.00575,,,,
5.63E+03,0.00384,0.00611,0.00648,,,,
6.14E+03,0.00246,0.00733,0.00571,,,,
6.65E+03,0.002,0.00714,0.00658,,,,
7.16E+03,0.00123,0.0057,0.00732,,,,
7.68E+03,0.00166,0.00573,0.00781,,,,
8.19E+03,0.000947,0.00514,0.00679,,,,
9.21E+03,0.000576,0.00469,0.00568,,,,
1.02E+04,0.00183,0.00732,0.00535,,,,
1.13E+04,0.00186,0.00868,0.00459,,,,
1.23E+04,0.00178,0.00903,0.00564,,,,
1.33E+04,0.00246,0.00755,0.00714,,,,
1.43E+04,0.00282,0.00706,0.00578,,,,
1.54E+04,0.00108,0.00756,0.00555,,,,
1.64E+04,0.000838,0.0065,0.00535,,,,
1.84E+04,0.000522,0.00726,0.00527,,,,
2.05E+04,0.00216,0.00639,0.00458,,,,
2.25E+04,0.0018,0.00798,0.00424,,,,
2.46E+04,0.00254,0.00728,0.00327,,,,
2.66E+04,0.000718,0.00659,0.00293,,,,
2.87E+04,0.0027,0.00557,0.00336,,,,
3.07E+04,0.00069,0.00695,0.00304,,,,
3.28E+04,0.000315,0.00675,0.00263,,,,
3.69E+04,0.0012,0.00507,0.00268,,,,
4.10E+04,0.00022,0.00591,0.00219,,,,
4.51E+04,0.00137,0.00652,0.00157,,,,
4.91E+04,0.00149,0.00509,0.0022,,,,
5.32E+04,0.00138,0.00537,0.00393,,,,
5.73E+04,0.00116,0.00438,0.00342,,,,
6.14E+04,0.0008,0.00597,0.00368,,,,
6.55E+04,0.000972,0.00589,0.00241,,,,
7.37E+04,0.000495,0.00541,0.00289,,,,
8.19E+04,0.00108,0.00487,0.00339,,,,
9.01E+04,0.000319,0.00454,0.00234,,,,
9.83E+04,0.000322,0.00457,0.00345,,,,
1.06E+05,0.00102,0.00371,0.00276,,,,
1.15E+05,0.000876,0.00404,0.00204,,,,
1.23E+05,0.000341,0.00372,0.00231,,,,
1.31E+05,0.000385,0.0046,0.00159,,,,
1.47E+05,0.000424,0.00425,0.000798,,,,
1.64E+05,0.000289,0.00391,0.00185,,,,
1.80E+05,0.000777,0.00267,0.00129,,,,
1.97E+05,0.000596,0.00503,0.00235,,,,
2.13E+05,0.000342,0.00409,0.00147,,,,
2.29E+05,0.000737,0.00311,0.000534,,,,
2.46E+05,0.000328,0.00278,0.00117,,,,
2.62E+05,0.000169,0.00283,0.00136,,,,
2.95E+05,0.000294,0.00194,0.00155,,,,
3.28E+05,0.00041,0.00313,0.000733,,,,
3.60E+05,0.000402,0.00216,0.000697,,,,
3.93E+05,0.00065,0.00182,0.000775,,,,
4.26E+05,0.00047,0.00171,0.000534,,,,
4.59E+05,5.22E-05,0.00202,0.000446,,,,
4.92E+05,0.000287,0.00106,0.000281,,,,
5.24E+05,0.00103,0.0012,0.000497,,,,
5.90E+05,0.00131,0.00079,0.000436,,,,
6.55E+05,0.00118,0.0013,0.000267,,,,
7.21E+05,0.000576,0.00101,0.00112,,,,
7.86E+05,0.000766,0.000517,0.000754,,,,
8.52E+05,0.000585,0.00104,5.81E-05,,,,
9.18E+05,0.000381,0.000536,0.00213,,,,
9.83E+05,0.00107,0.000332,0.00141,,,,
1.05E+06,0.000617,0.000467,0.0011,,,,
1.18E+06,0.000175,0.00284,0.00416,,,,
1.31E+06,0.000201,0.00315,0.00242,,,,
1.44E+06,9.02E-05,0.00334,0.00273,,,,
1.57E+06,2.52E-05,0.00301,0.00374,,,,
1.70E+06,0.000399,0.00322,0.00379,,,,
1.84E+06,0.000337,0.00332,0.00295,,,,
1.97E+06,0.000329,0.00293,0.00281,,,,
2.10E+06,0.000172,0.000473,0.000951,,,,
2.36E+06,0.000208,0.000562,0.000915,,,,
2.62E+06,0.000601,0.00101,0.000924,,,,
2.88E+06,4.04E-05,0.000475,0.00128,,,,
3.15E+06,0.000441,0.000774,0.000582,,,,
3.41E+06,0.000928,0.000468,0.0017,,,,
3.67E+06,0.000567,0.000279,0.00103,,,,
3.93E+06,0.001,0.00131,0.00113,,,,
4.19E+06,0,0,0,,,,
4.72E+06,0,0,0,,,,
5.24E+06,0,0,0,,,,
5.77E+06,0,0,0,,,,
6.29E+06,0,0,0,,,,
6.82E+06,0,0,0,,,,
7.34E+06,0,0,0,,,,
7.86E+06,0,0,0,,,,
8.39E+06,0,0,0,,,,
9.44E+06,0,0,0,,,,
1.05E+07,0,0,0,,,,
1.15E+07,0,0,0,,,,
1.26E+07,0,0,0,,,,
1.36E+07,0,0,0,,,,
1.47E+07,0,0,0,,,,
1.57E+07,0,0,0,,,,
1.68E+07,0,0,0,,,,
1.89E+07,0,0,0,,,,
2.10E+07,0,0,0,,,,
2.31E+07,0,0,0,,,,
2.52E+07,0,0,0,,,,
2.73E+07,0,0,0,,,,
2.94E+07,0,0,0,,,,
3.15E+07,0,0,0,,,,
3.36E+07,0,0,0,,,,
3.77E+07,0,0,0,,,,
4.19E+07,0,0,0,,,,
4.61E+07,0,0,0,,,,
5.03E+07,0,0,0,,,,
5.45E+07,0,0,0,,,,
5.87E+07,0,0,0,,,,