X Lag Time,Record 1: EVs_3e10_PS2_050ug_000rpm_00-00min_NA_No1_230921 1,Record 2: EVs_3e10_PS2_050ug_000rpm_00-00min_NA_No1_230921 2,Record 3: EVs_3e10_PS2_050ug_000rpm_00-00min_NA_No1_230921 3,X Intensity,Record 1: EVs_3e10_PS2_050ug_000rpm_00-00min_NA_No1_230921 1,Record 2: EVs_3e10_PS2_050ug_000rpm_00-00min_NA_No1_230921 2,Record 3: EVs_3e10_PS2_050ug_000rpm_00-00min_NA_No1_230921 3
0.5,0.865,0.861,0.867,0.4,0,0,0
1,0.87,0.868,0.872,0.463,0,0,0
1.5,0.866,0.864,0.872,0.536,0,0,0
2,0.864,0.861,0.867,0.621,0,0,0
2.5,0.865,0.858,0.866,0.719,0,0,0
3,0.861,0.857,0.864,0.833,0,0,0
3.5,0.859,0.856,0.864,0.965,0,0,0
4,0.856,0.855,0.861,1.12,0,0,0
4.5,0.853,0.851,0.858,1.29,0,0,0
5.5,0.851,0.846,0.853,1.5,0,0,0
6.5,0.846,0.844,0.85,1.74,0,0,0
7.5,0.842,0.838,0.846,2.01,0,0,0
8.5,0.838,0.836,0.842,2.33,0,0,0
9.5,0.833,0.831,0.836,2.7,0,0,0
10.5,0.831,0.827,0.835,3.12,0,0,0
11.5,0.827,0.823,0.83,3.62,0,0,0
12.5,0.823,0.82,0.826,4.19,0,0,0
14.5,0.815,0.811,0.817,4.85,0,0,0
16.5,0.807,0.803,0.81,5.61,0,0,0
18.5,0.799,0.795,0.802,6.5,0,0,0
20.5,0.792,0.787,0.795,7.53,0,0,0
22.5,0.785,0.781,0.787,8.72,0,0,0
24.5,0.777,0.774,0.78,10.1,0,0,0
26.5,0.77,0.767,0.774,11.7,0,0,0
28.5,0.763,0.759,0.766,13.5,0,0,0
32.5,0.75,0.745,0.753,15.7,0,0,0
36.5,0.736,0.732,0.739,18.2,0,0,0
40.5,0.723,0.718,0.726,21,0,0,0.104
44.5,0.71,0.706,0.712,24.4,0,0,0.54
48.5,0.698,0.693,0.699,28.2,0,0,1.01
52.5,0.685,0.681,0.688,32.7,0.0634,0,1.23
56.5,0.673,0.668,0.676,37.8,0.31,0,1.11
60.5,0.662,0.657,0.663,43.8,0.768,0,0.789
68.5,0.64,0.635,0.641,50.7,1.41,0.475,0.549
76.5,0.618,0.613,0.619,58.8,2.19,1.56,0.664
84.5,0.598,0.592,0.598,68.1,3.05,3.11,1.32
92.5,0.579,0.573,0.579,78.8,3.98,4.86,2.55
101,0.559,0.554,0.56,91.3,4.92,6.53,4.24
109,0.542,0.535,0.542,106,5.86,7.88,6.16
117,0.525,0.519,0.524,122,6.75,8.77,8.02
125,0.508,0.502,0.508,142,7.54,9.17,9.54
141,0.477,0.471,0.476,164,8.16,9.08,10.5
157,0.448,0.441,0.447,190,8.53,8.6,10.7
173,0.421,0.414,0.42,220,8.59,7.82,10.2
189,0.397,0.389,0.395,255,8.31,6.85,9.1
205,0.374,0.366,0.372,295,7.66,5.8,7.47
221,0.353,0.343,0.351,342,6.7,4.75,5.61
237,0.333,0.323,0.331,396,5.5,3.77,3.75
253,0.314,0.305,0.313,459,4.17,2.9,2.14
285,0.28,0.271,0.28,531,2.85,2.15,0.945
317,0.251,0.242,0.25,615,1.68,1.55,0.249
349,0.226,0.217,0.224,712,0.78,1.08,0
381,0.203,0.195,0.201,825,0.222,0.733,0
413,0.183,0.175,0.181,955,0,0.488,0
445,0.165,0.157,0.163,1.11E+03,0,0.326,0
477,0.149,0.142,0.147,1.28E+03,0,0.229,0
509,0.136,0.129,0.134,1.48E+03,0,0.178,0
573,0.113,0.106,0.11,1.72E+03,0,0.158,0
637,0.0941,0.0883,0.0911,1.99E+03,0,0.155,0
701,0.0787,0.0735,0.0755,2.30E+03,0,0.16,0
765,0.0661,0.0618,0.0628,2.67E+03,0,0.165,0
829,0.0554,0.0525,0.0533,3.09E+03,0,0.166,0.0284
893,0.0464,0.0456,0.0459,3.58E+03,0,0.161,0.123
957,0.0395,0.0392,0.0392,4.15E+03,0,0.149,0.274
1.02E+03,0.0342,0.0337,0.0343,4.80E+03,0,0.13,0.443
1.15E+03,0.0252,0.0243,0.0264,5.56E+03,0,0.106,0.581
1.28E+03,0.0185,0.0164,0.019,6.44E+03,0,0,0
1.40E+03,0.0132,0.013,0.0139,7.46E+03,0,0,0
1.53E+03,0.00792,0.0107,0.0101,8.63E+03,0,0,0
1.66E+03,0.00522,0.00831,0.00773,,,,
1.79E+03,0.00384,0.00586,0.00642,,,,
1.92E+03,0.00291,0.00432,0.00621,,,,
2.04E+03,0.00309,0.00399,0.0062,,,,
2.30E+03,0.00401,0.00391,0.00426,,,,
2.56E+03,0.00345,0.00362,0.00452,,,,
2.81E+03,0.00259,0.00348,0.005,,,,
3.07E+03,0.00137,0.00289,0.00503,,,,
3.32E+03,0.00107,0.00179,0.00469,,,,
3.58E+03,0.000872,0.00177,0.00553,,,,
3.84E+03,0.00197,0.00178,0.0057,,,,
4.09E+03,0.00239,0.00134,0.00307,,,,
4.60E+03,0.00213,0.0015,0.0027,,,,
5.12E+03,0.0024,0.00323,0.000368,,,,
5.63E+03,0.00246,0.00197,0.000649,,,,
6.14E+03,0.00202,0.00123,0.00245,,,,
6.65E+03,0.0018,0.00185,0.00279,,,,
7.16E+03,0.00457,0.00107,0.00171,,,,
7.68E+03,0.006,0.00141,0.000916,,,,
8.19E+03,0.00309,0.00137,0.00133,,,,
9.21E+03,0.00305,0.00199,0.001,,,,
1.02E+04,0.00323,0.00104,0.00125,,,,
1.13E+04,0.00132,0.00141,0.00115,,,,
1.23E+04,0.00139,0.0019,0.00114,,,,
1.33E+04,0.00318,0.00147,0.000829,,,,
1.43E+04,0.0023,0.00273,0.00147,,,,
1.54E+04,0.00395,0.00246,0.00201,,,,
1.64E+04,0.00308,0.000773,0.00114,,,,
1.84E+04,0.00264,0.00142,0.000602,,,,
2.05E+04,0.00308,0.000371,0.00195,,,,
2.25E+04,0.00114,0.00189,0.00188,,,,
2.46E+04,0.000721,0.00334,0.000601,,,,
2.66E+04,0.00119,0.000938,0.000377,,,,
2.87E+04,0.00157,0.00151,0.00104,,,,
3.07E+04,0.00194,0.0026,0.000975,,,,
3.28E+04,0.000908,0.00294,0.00133,,,,
3.69E+04,0.00197,0.00117,0.00274,,,,
4.10E+04,0.0011,0.000622,0.00241,,,,
4.51E+04,0.000537,0.00104,0.00189,,,,
4.91E+04,0.00109,0.00122,0.00253,,,,
5.32E+04,0.00141,0.000987,0.000907,,,,
5.73E+04,0.00178,0.00191,0.000649,,,,
6.14E+04,0.00228,0.00205,0.00193,,,,
6.55E+04,0.00144,0.000925,0.00145,,,,
7.37E+04,0.00184,0.000466,0.000238,,,,
8.19E+04,0.00114,0.000623,0.00168,,,,
9.01E+04,0.00178,0.00183,0.000593,,,,
9.83E+04,0.0013,0.0011,0.000345,,,,
1.06E+05,0.00136,0.000391,0.00103,,,,
1.15E+05,0.00117,0.00122,0.00158,,,,
1.23E+05,0.00174,0.0019,0.00189,,,,
1.31E+05,0.00169,0.00134,0.000812,,,,
1.47E+05,0.00175,0.00128,0.000976,,,,
1.64E+05,0.00188,0.0012,0.00138,,,,
1.80E+05,0.000651,0.000932,0.00108,,,,
1.97E+05,0.00136,0.0016,0.00109,,,,
2.13E+05,0.00195,0.000956,0.000803,,,,
2.29E+05,0.000617,0.000629,0.000644,,,,
2.46E+05,0.000672,0.00107,0.00135,,,,
2.62E+05,0.00103,0.00103,0.00166,,,,
2.95E+05,0.00193,0.0014,0.000819,,,,
3.28E+05,0.0013,0.000619,0.00114,,,,
3.60E+05,0.00122,0.0011,0.000955,,,,
3.93E+05,0.000821,0.000796,0.00104,,,,
4.26E+05,0.00128,0.00073,0.00111,,,,
4.59E+05,0.000601,0.000557,0.00108,,,,
4.92E+05,0.00101,0.000918,0.00156,,,,
5.24E+05,0.000643,0.00069,0.000346,,,,
5.90E+05,0.000612,0.000782,0.000823,,,,
6.55E+05,0.000154,0.000599,0.00105,,,,
7.21E+05,0.000733,0.000977,0.000775,,,,
7.86E+05,0.000677,0.000581,0.00036,,,,
8.52E+05,0.000729,0.00126,0.000421,,,,
9.18E+05,0.000318,0.000445,0.00102,,,,
9.83E+05,0.000454,0.000965,0.000512,,,,
1.05E+06,0.000706,0.00143,0.00063,,,,
1.18E+06,0.000373,0.00105,0.000444,,,,
1.31E+06,0.000419,0.00104,0.00096,,,,
1.44E+06,0.000766,0.000658,0.000424,,,,
1.57E+06,0.00117,0.000898,0.000459,,,,
1.70E+06,0.000669,0.000306,0.000503,,,,
1.84E+06,0.000718,6.48E-05,0.000424,,,,
1.97E+06,0.000832,0.000738,0.000616,,,,
2.10E+06,0.000565,0.00112,0.000162,,,,
2.36E+06,0.000281,0.000302,0.000146,,,,
2.62E+06,8.48E-05,0.00103,0.000324,,,,
2.88E+06,5.81E-05,0.000466,0.000346,,,,
3.15E+06,0.000132,0.000949,0.000297,,,,
3.41E+06,0,0.000349,0.000117,,,,
3.67E+06,0.000694,0.000281,0.000533,,,,
3.93E+06,0.00107,0.000248,0.000242,,,,
4.19E+06,0,0,0,,,,
4.72E+06,0,0,0,,,,
5.24E+06,0,0,0,,,,
5.77E+06,0,0,0,,,,
6.29E+06,0,0,0,,,,
6.82E+06,0,0,0,,,,
7.34E+06,0,0,0,,,,
7.86E+06,0,0,0,,,,
8.39E+06,0,0,0,,,,
9.44E+06,0,0,0,,,,
1.05E+07,0,0,0,,,,
1.15E+07,0,0,0,,,,
1.26E+07,0,0,0,,,,
1.36E+07,0,0,0,,,,
1.47E+07,0,0,0,,,,
1.57E+07,0,0,0,,,,
1.68E+07,0,0,0,,,,
1.89E+07,0,0,0,,,,
2.10E+07,0,0,0,,,,
2.31E+07,0,0,0,,,,
2.52E+07,0,0,0,,,,
2.73E+07,0,0,0,,,,
2.94E+07,0,0,0,,,,
3.15E+07,0,0,0,,,,
3.36E+07,0,0,0,,,,
3.77E+07,0,0,0,,,,
4.19E+07,0,0,0,,,,
4.61E+07,0,0,0,,,,
5.03E+07,0,0,0,,,,
5.45E+07,0,0,0,,,,
5.87E+07,0,0,0,,,,