X Lag Time,Record 1: PBS_00mg_PO1_050ug_300rpm_20-00min_ST_No1_230925 1,Record 2: PBS_00mg_PO1_050ug_300rpm_20-00min_ST_No1_230925 2,Record 3: PBS_00mg_PO1_050ug_300rpm_20-00min_ST_No1_230925 3,X Intensity,Record 1: PBS_00mg_PO1_050ug_300rpm_20-00min_ST_No1_230925 1,Record 2: PBS_00mg_PO1_050ug_300rpm_20-00min_ST_No1_230925 2,Record 3: PBS_00mg_PO1_050ug_300rpm_20-00min_ST_No1_230925 3
0.5,0.879,0.879,0.881,0.4,0,0,0
1,0.885,0.885,0.886,0.463,0,0,0
1.5,0.88,0.882,0.883,0.536,0,0,0
2,0.878,0.879,0.882,0.621,0,0,0
2.5,0.877,0.876,0.88,0.719,0,0,0
3,0.875,0.875,0.878,0.833,0,0,0
3.5,0.872,0.873,0.874,0.965,0,0,0
4,0.87,0.871,0.872,1.12,0,0,0
4.5,0.868,0.868,0.87,1.29,0,0,0
5.5,0.864,0.864,0.866,1.5,0,0,0
6.5,0.86,0.861,0.861,1.74,0,0,0
7.5,0.854,0.855,0.857,2.01,0,0,0
8.5,0.851,0.852,0.853,2.33,0,0,0
9.5,0.847,0.846,0.85,2.7,0,0,0
10.5,0.843,0.843,0.845,3.12,0,0,0
11.5,0.838,0.839,0.84,3.62,0,0,0
12.5,0.834,0.834,0.836,4.19,0,0,0
14.5,0.826,0.826,0.828,4.85,0,0,0
16.5,0.818,0.818,0.82,5.61,0,0,0
18.5,0.81,0.809,0.812,6.5,0,0,0
20.5,0.802,0.803,0.804,7.53,0,0,0
22.5,0.794,0.794,0.796,8.72,0,0,0
24.5,0.787,0.786,0.788,10.1,0,0,0
26.5,0.779,0.779,0.78,11.7,0,0,0
28.5,0.771,0.772,0.773,13.5,0,0,0
32.5,0.756,0.757,0.759,15.7,0,0,0
36.5,0.742,0.743,0.745,18.2,0,0,0
40.5,0.728,0.729,0.731,21,0,0,0
44.5,0.715,0.715,0.718,24.4,0,0,0.099
48.5,0.702,0.702,0.704,28.2,0,0,0.488
52.5,0.688,0.689,0.691,32.7,0,0,0.94
56.5,0.676,0.676,0.678,37.8,0.204,0.121,1.24
60.5,0.664,0.664,0.666,43.8,0.887,0.719,1.34
68.5,0.639,0.64,0.642,50.7,2.01,1.8,1.42
76.5,0.617,0.618,0.619,58.8,3.39,3.19,1.69
84.5,0.595,0.595,0.597,68.1,4.81,4.66,2.38
92.5,0.574,0.575,0.577,78.8,6.1,6,3.55
101,0.554,0.555,0.557,91.3,7.14,7.05,5.13
109,0.535,0.536,0.538,106,7.88,7.74,6.9
117,0.516,0.518,0.52,122,8.3,8.04,8.58
125,0.499,0.5,0.502,142,8.43,8,9.86
141,0.466,0.467,0.469,164,8.29,7.66,10.5
157,0.435,0.437,0.439,190,7.91,7.12,10.4
173,0.408,0.408,0.411,220,7.31,6.44,9.58
189,0.382,0.382,0.386,255,6.52,5.69,8.14
205,0.359,0.359,0.362,295,5.56,4.92,6.3
221,0.337,0.337,0.34,342,4.5,4.18,4.36
237,0.316,0.316,0.32,396,3.39,3.49,2.58
253,0.298,0.298,0.302,459,2.33,2.86,1.2
285,0.264,0.265,0.268,531,1.39,2.3,0.343
317,0.236,0.236,0.239,615,0.659,1.82,0
349,0.211,0.211,0.214,712,0.198,1.41,0
381,0.19,0.189,0.192,825,0.00384,1.07,0
413,0.171,0.169,0.172,955,0,0.794,0
445,0.154,0.152,0.155,1.11E+03,0,0.579,0
477,0.14,0.138,0.139,1.28E+03,0,0.417,0
509,0.127,0.125,0.125,1.48E+03,0,0.301,0
573,0.105,0.104,0.103,1.72E+03,0,0.226,0
637,0.0883,0.087,0.0849,1.99E+03,0,0.182,0
701,0.075,0.0737,0.0709,2.30E+03,0,0.163,0
765,0.0647,0.0627,0.0597,2.67E+03,0,0.161,0.0275
829,0.0561,0.0537,0.0504,3.09E+03,0,0.17,0.143
893,0.049,0.0465,0.0437,3.58E+03,0.146,0.181,0.346
957,0.0426,0.0407,0.0382,4.15E+03,0.464,0.19,0.599
1.02E+03,0.0377,0.0357,0.0341,4.80E+03,0.884,0.191,0.84
1.15E+03,0.0303,0.0272,0.0272,5.56E+03,1.28,0.181,1
1.28E+03,0.0245,0.0216,0.0217,6.44E+03,0,0,0
1.40E+03,0.0198,0.0168,0.0177,7.46E+03,0,0,0
1.53E+03,0.0155,0.0127,0.0149,8.63E+03,0,0,0
1.66E+03,0.012,0.0102,0.0135,,,,
1.79E+03,0.0108,0.00844,0.0119,,,,
1.92E+03,0.0104,0.00826,0.0109,,,,
2.04E+03,0.0091,0.00691,0.00953,,,,
2.30E+03,0.00729,0.0053,0.00802,,,,
2.56E+03,0.00505,0.00472,0.00697,,,,
2.81E+03,0.00545,0.0037,0.00413,,,,
3.07E+03,0.00417,0.00295,0.00388,,,,
3.32E+03,0.00508,0.00388,0.00609,,,,
3.58E+03,0.00654,0.00475,0.0051,,,,
3.84E+03,0.00776,0.00614,0.00237,,,,
4.09E+03,0.00547,0.00409,0.00266,,,,
4.60E+03,0.00312,0.00277,0.00355,,,,
5.12E+03,0.00236,0.00223,0.00309,,,,
5.63E+03,0.00232,0.00261,0.00395,,,,
6.14E+03,0.0027,0.00301,0.00354,,,,
6.65E+03,0.00343,0.00174,0.0021,,,,
7.16E+03,0.00332,0.00233,0.000551,,,,
7.68E+03,0.00576,0.00395,0.000852,,,,
8.19E+03,0.00508,0.00644,0.000384,,,,
9.21E+03,0.00535,0.00109,0.000219,,,,
1.02E+04,0.00344,0.00203,2.24E-05,,,,
1.13E+04,0.00539,0.00316,0.000782,,,,
1.23E+04,0.00462,0.00163,0.00135,,,,
1.33E+04,0.00416,0.00257,0.00146,,,,
1.43E+04,0.00428,0.00217,0.00143,,,,
1.54E+04,0.00423,0.00162,0.00172,,,,
1.64E+04,0.00276,0.00142,0.00381,,,,
1.84E+04,0.00434,0.00392,0.00393,,,,
2.05E+04,0.00428,0.00367,0.00316,,,,
2.25E+04,0.00308,0.00486,0.00203,,,,
2.46E+04,0.00258,0.00142,0.00333,,,,
2.66E+04,0.00179,0.00188,0.003,,,,
2.87E+04,0.00298,0.0023,0.00189,,,,
3.07E+04,0.00108,0.000136,0.00218,,,,
3.28E+04,0.0021,0.00125,0.00229,,,,
3.69E+04,0.00389,0.00197,0.00251,,,,
4.10E+04,0.00181,0.00108,0.00219,,,,
4.51E+04,0.00116,0.00137,0.000821,,,,
4.91E+04,0.00427,0.00148,0.00118,,,,
5.32E+04,0.00364,0.00228,0.00298,,,,
5.73E+04,0.00255,0.00246,0.00181,,,,
6.14E+04,0.00271,0.00272,0.00204,,,,
6.55E+04,0.00188,0.00251,0.00191,,,,
7.37E+04,0.00135,0.00229,0.00119,,,,
8.19E+04,0.00291,0.00172,0.00256,,,,
9.01E+04,0.00411,0.00265,0.00285,,,,
9.83E+04,0.00247,0.00218,0.00186,,,,
1.06E+05,0.00306,0.00225,0.00118,,,,
1.15E+05,0.0013,0.00158,0.00175,,,,
1.23E+05,0.00112,0.00172,0.00206,,,,
1.31E+05,0.00154,0.00122,0.00134,,,,
1.47E+05,0.00195,0.00223,0.0018,,,,
1.64E+05,0.00191,0.00154,0.00191,,,,
1.80E+05,0.00151,0.00251,0.00216,,,,
1.97E+05,0.00174,0.00232,0.0022,,,,
2.13E+05,0.00173,0.00166,0.00143,,,,
2.29E+05,0.0011,0.00069,0.00171,,,,
2.46E+05,0.00101,0.00184,0.00117,,,,
2.62E+05,0.00151,0.000768,0.00144,,,,
2.95E+05,0.00207,0.000793,0.00188,,,,
3.28E+05,0.00134,0.000958,0.00214,,,,
3.60E+05,0.00205,0.000561,0.00146,,,,
3.93E+05,0.00142,0.00153,0.00147,,,,
4.26E+05,0.00157,0.000843,0.00152,,,,
4.59E+05,0.00218,0.000943,0.00116,,,,
4.92E+05,0.00188,0.000645,0.00174,,,,
5.24E+05,0.00105,0.000921,0.00137,,,,
5.90E+05,0.000769,0.00127,0.000585,,,,
6.55E+05,0.00117,0.000566,0.00062,,,,
7.21E+05,0.000547,0.00116,0.000935,,,,
7.86E+05,0.00188,0.000945,0.000207,,,,
8.52E+05,0.00121,0.000481,0.000381,,,,
9.18E+05,0.00053,0.00103,0.000318,,,,
9.83E+05,0.00109,0.000289,0.000392,,,,
1.05E+06,0.00113,0.000378,0.00147,,,,
1.18E+06,0.000391,0.000336,0.000818,,,,
1.31E+06,0.000839,0.000279,0.000525,,,,
1.44E+06,0.000236,0.000934,0.00109,,,,
1.57E+06,0.0011,0.000567,0.00144,,,,
1.70E+06,0.000358,0.000502,0.00125,,,,
1.84E+06,0.000515,0.000341,0.00104,,,,
1.97E+06,0.000703,0.000433,0.00144,,,,
2.10E+06,0.000891,0,0.00132,,,,
2.36E+06,0.00114,0.000361,0.00177,,,,
2.62E+06,0.000579,4.88E-05,0.00131,,,,
2.88E+06,0.00155,0.000222,0.00214,,,,
3.15E+06,0.00113,0.000206,0.00189,,,,
3.41E+06,0.00111,0,0.00121,,,,
3.67E+06,0.00113,0.000289,0.00075,,,,
3.93E+06,0.000337,2.87E-05,0.00126,,,,
4.19E+06,0,0,0,,,,
4.72E+06,0,0,0,,,,
5.24E+06,0,0,0,,,,
5.77E+06,0,0,0,,,,
6.29E+06,0,0,0,,,,
6.82E+06,0,0,0,,,,
7.34E+06,0,0,0,,,,
7.86E+06,0,0,0,,,,
8.39E+06,0,0,0,,,,
9.44E+06,0,0,0,,,,
1.05E+07,0,0,0,,,,
1.15E+07,0,0,0,,,,
1.26E+07,0,0,0,,,,
1.36E+07,0,0,0,,,,
1.47E+07,0,0,0,,,,
1.57E+07,0,0,0,,,,
1.68E+07,0,0,0,,,,
1.89E+07,0,0,0,,,,
2.10E+07,0,0,0,,,,
2.31E+07,0,0,0,,,,
2.52E+07,0,0,0,,,,
2.73E+07,0,0,0,,,,
2.94E+07,0,0,0,,,,
3.15E+07,0,0,0,,,,
3.36E+07,0,0,0,,,,
3.77E+07,0,0,0,,,,
4.19E+07,0,0,0,,,,
4.61E+07,0,0,0,,,,
5.03E+07,0,0,0,,,,
5.45E+07,0,0,0,,,,
5.87E+07,0,0,0,,,,