X Lag Time,Record 1: PBS_00mg_PO1_050ug_000rpm_00-00min_NA_No1_230925 1,Record 2: PBS_00mg_PO1_050ug_000rpm_00-00min_NA_No1_230925 2,Record 3: PBS_00mg_PO1_050ug_000rpm_00-00min_NA_No1_230925 3,X Intensity,Record 1: PBS_00mg_PO1_050ug_000rpm_00-00min_NA_No1_230925 1,Record 2: PBS_00mg_PO1_050ug_000rpm_00-00min_NA_No1_230925 2,Record 3: PBS_00mg_PO1_050ug_000rpm_00-00min_NA_No1_230925 3
0.5,0.196,0.188,0.174,0.4,0,0,0
1,0.184,0.17,0.167,0.463,0,0,0
1.5,0.177,0.167,0.156,0.536,0,0,0
2,0.165,0.154,0.148,0.621,0,0,0
2.5,0.156,0.147,0.146,0.719,0,0,0
3,0.148,0.147,0.135,0.833,0,0,0
3.5,0.142,0.137,0.135,0.965,0,0,0
4,0.141,0.134,0.129,1.12,0,0,0
4.5,0.135,0.131,0.123,1.29,0,0,0.0832
5.5,0.123,0.121,0.114,1.5,0,0,0.258
6.5,0.117,0.118,0.108,1.74,0,0,0.414
7.5,0.112,0.105,0.1,2.01,0,0,0.489
8.5,0.103,0.1,0.095,2.33,0,0,0.519
9.5,0.098,0.0914,0.0879,2.7,0,0,0.624
10.5,0.0903,0.0865,0.0811,3.12,0,0,0.952
11.5,0.0853,0.0824,0.0767,3.62,0,0,1.62
12.5,0.081,0.0772,0.0725,4.19,0,0.0782,2.67
14.5,0.0726,0.0702,0.0639,4.85,0.299,1.69,4.06
16.5,0.061,0.0624,0.0554,5.61,2.24,4.77,5.66
18.5,0.0556,0.0534,0.0486,6.5,5.66,8.49,7.28
20.5,0.0492,0.0486,0.0452,7.53,9.64,11.9,8.7
22.5,0.0435,0.0392,0.0406,8.72,13.1,14.1,9.73
24.5,0.0393,0.0389,0.0347,10.1,15.2,14.7,10.2
26.5,0.0365,0.0355,0.0302,11.7,15.5,13.6,10.1
28.5,0.033,0.0321,0.0265,13.5,14,11.2,9.41
32.5,0.0246,0.0258,0.0223,15.7,11.1,8,8.19
36.5,0.0217,0.0197,0.0178,18.2,7.5,4.79,6.62
40.5,0.0185,0.0184,0.0143,21,4.07,2.17,4.89
44.5,0.0135,0.0154,0.0111,24.4,1.51,0.566,3.21
48.5,0.0123,0.0121,0.00955,28.2,0.2,0,1.79
52.5,0.00975,0.0119,0.00849,32.7,0,0,0.767
56.5,0.00952,0.0103,0.00656,37.8,0,0,0.189
60.5,0.00899,0.00875,0.00574,43.8,0,0,0
68.5,0.00843,0.00822,0.0039,50.7,0,0,0
76.5,0.00448,0.0064,0.00337,58.8,0,0,0
84.5,0.00601,0.00626,0.00374,68.1,0,0,0
92.5,0.00598,0.00603,0.00258,78.8,0,0,0
101,0.00568,0.0053,0.00241,91.3,0,0,0
109,0.00442,0.00483,0.00268,106,0,0,0
117,0.00541,0.00499,0.00355,122,0,0,0
125,0.005,0.00472,0.00189,142,0,0,0
141,0.00498,0.00456,0.002,164,0,0,0
157,0.00406,0.00453,0.00201,190,0,0,0
173,0.00361,0.00434,0.00175,220,0,0,0
189,0.0046,0.00429,0.00247,255,0,0,0
205,0.00421,0.00439,0.00235,295,0,0,0
221,0.00379,0.00412,0.00176,342,0,0,0
237,0.00375,0.00443,0.00171,396,0,0,0
253,0.00463,0.00378,0.00115,459,0,0,0
285,0.00364,0.00317,0.00148,531,0,0,0
317,0.00398,0.00337,0.00179,615,0,0,0
349,0.00373,0.00322,0.00181,712,0,0,0
381,0.00399,0.00315,0.00118,825,0,0,0
413,0.00367,0.00338,0.00146,955,0,0,0
445,0.00366,0.00274,0.00122,1.11E+03,0,0,0
477,0.00347,0.00316,0.000955,1.28E+03,0,0,0
509,0.00345,0.00299,0.00118,1.48E+03,0,0,0
573,0.00337,0.00308,0.00122,1.72E+03,0,0,0
637,0.00313,0.00258,0.00109,1.99E+03,0,0.0286,0
701,0.003,0.00274,0.00101,2.30E+03,0,0.113,0.0132
765,0.00286,0.00261,0.00105,2.67E+03,0,0.255,0.055
829,0.00316,0.0022,0.00105,3.09E+03,0,0.436,0.126
893,0.00299,0.0026,0.000927,3.58E+03,0,0.626,0.215
957,0.00326,0.00298,0.000852,4.15E+03,0,0.793,0.305
1.02E+03,0.00308,0.0027,0.000891,4.80E+03,0,0.903,0.378
1.15E+03,0.00291,0.00256,0.000913,5.56E+03,0,0.928,0.414
1.28E+03,0.00295,0.00218,0.000936,6.44E+03,0,0,0
1.40E+03,0.00296,0.00201,0.000887,7.46E+03,0,0,0
1.53E+03,0.0032,0.00195,0.000901,8.63E+03,0,0,0
1.66E+03,0.00293,0.00185,0.000715,,,,
1.79E+03,0.00292,0.00185,0.00088,,,,
1.92E+03,0.00267,0.00217,0.000972,,,,
2.04E+03,0.00262,0.0022,0.000658,,,,
2.30E+03,0.00276,0.00188,0.00101,,,,
2.56E+03,0.0024,0.00179,0.00108,,,,
2.81E+03,0.00266,0.00182,0.000761,,,,
3.07E+03,0.00259,0.00188,0.000749,,,,
3.32E+03,0.00266,0.00185,0.000907,,,,
3.58E+03,0.00276,0.00168,0.00078,,,,
3.84E+03,0.0026,0.00162,0.000831,,,,
4.09E+03,0.00265,0.00175,0.00071,,,,
4.60E+03,0.00266,0.00167,0.000775,,,,
5.12E+03,0.00301,0.0019,0.000773,,,,
5.63E+03,0.00312,0.00204,0.000892,,,,
6.14E+03,0.00286,0.00191,0.000689,,,,
6.65E+03,0.00291,0.00201,0.000832,,,,
7.16E+03,0.00282,0.00186,0.000756,,,,
7.68E+03,0.00265,0.0018,0.000805,,,,
8.19E+03,0.00267,0.00168,0.000725,,,,
9.21E+03,0.00262,0.00167,0.000721,,,,
1.02E+04,0.00287,0.00181,0.000792,,,,
1.13E+04,0.00285,0.00186,0.000614,,,,
1.23E+04,0.00285,0.00186,0.000808,,,,
1.33E+04,0.00275,0.00181,0.00059,,,,
1.43E+04,0.00253,0.00166,0.000758,,,,
1.54E+04,0.0027,0.00172,0.000675,,,,
1.64E+04,0.00279,0.00176,0.000639,,,,
1.84E+04,0.00283,0.0017,0.000788,,,,
2.05E+04,0.00255,0.00164,0.000735,,,,
2.25E+04,0.00278,0.00167,0.000631,,,,
2.46E+04,0.00272,0.00174,0.000732,,,,
2.66E+04,0.00275,0.00177,0.000677,,,,
2.87E+04,0.00277,0.00171,0.000744,,,,
3.07E+04,0.00269,0.00173,0.000625,,,,
3.28E+04,0.00262,0.00174,0.000672,,,,
3.69E+04,0.00263,0.00166,0.000639,,,,
4.10E+04,0.00274,0.00172,0.000661,,,,
4.51E+04,0.00278,0.00169,0.000644,,,,
4.91E+04,0.00272,0.00171,0.000666,,,,
5.32E+04,0.0028,0.00183,0.000651,,,,
5.73E+04,0.00277,0.00171,0.000611,,,,
6.14E+04,0.00277,0.00173,0.00066,,,,
6.55E+04,0.00288,0.00174,0.000667,,,,
7.37E+04,0.00287,0.00166,0.000591,,,,
8.19E+04,0.00284,0.00168,0.000544,,,,
9.01E+04,0.00283,0.0017,0.000555,,,,
9.83E+04,0.00281,0.00172,0.00048,,,,
1.06E+05,0.00289,0.00164,0.000496,,,,
1.15E+05,0.00284,0.00165,0.000462,,,,
1.23E+05,0.00288,0.00168,0.000412,,,,
1.31E+05,0.00287,0.00158,0.000409,,,,
1.47E+05,0.00288,0.00157,0.00038,,,,
1.64E+05,0.00288,0.00152,0.000423,,,,
1.80E+05,0.0029,0.00147,0.000401,,,,
1.97E+05,0.0029,0.00148,0.000368,,,,
2.13E+05,0.00293,0.00141,0.000401,,,,
2.29E+05,0.00294,0.00144,0.000342,,,,
2.46E+05,0.00302,0.00142,0.000386,,,,
2.62E+05,0.00309,0.00147,0.000383,,,,
2.95E+05,0.00302,0.00143,0.00038,,,,
3.28E+05,0.00319,0.00136,0.000397,,,,
3.60E+05,0.00316,0.00126,0.000428,,,,
3.93E+05,0.00324,0.00116,0.000507,,,,
4.26E+05,0.00327,0.00116,0.000571,,,,
4.59E+05,0.00336,0.00105,0.000592,,,,
4.92E+05,0.00335,0.00104,0.000533,,,,
5.24E+05,0.00354,0.00105,0.000527,,,,
5.90E+05,0.00354,0.000969,0.000375,,,,
6.55E+05,0.00366,0.000877,0.000394,,,,
7.21E+05,0.00369,0.000837,0.000438,,,,
7.86E+05,0.00371,0.000732,0.000368,,,,
8.52E+05,0.00375,0.000659,0.000394,,,,
9.18E+05,0.00385,0.000658,0.000493,,,,
9.83E+05,0.0039,0.000635,0.000449,,,,
1.05E+06,0.00406,0.00046,0.000413,,,,
1.18E+06,0.004,0.000484,0.000349,,,,
1.31E+06,0.00407,0.000442,0.000297,,,,
1.44E+06,0.00417,0.000317,0.000473,,,,
1.57E+06,0.0042,0.000271,0.000293,,,,
1.70E+06,0.00437,0.000365,0.000277,,,,
1.84E+06,0.00448,0.00032,0.000284,,,,
1.97E+06,0.00446,0.000243,0.000312,,,,
2.10E+06,0.00462,8.36E-05,0.000368,,,,
2.36E+06,0.00483,7.58E-05,0.000293,,,,
2.62E+06,0.00468,0.000158,0.000318,,,,
2.88E+06,0.00421,0.000729,0.000176,,,,
3.15E+06,0.00381,0.00117,0.000215,,,,
3.41E+06,0.00363,0.00147,0.000222,,,,
3.67E+06,0.00334,0.00153,0.000298,,,,
3.93E+06,0.00311,0.000943,0.000241,,,,
4.19E+06,0,0,0,,,,
4.72E+06,0,0,0,,,,
5.24E+06,0,0,0,,,,
5.77E+06,0,0,0,,,,
6.29E+06,0,0,0,,,,
6.82E+06,0,0,0,,,,
7.34E+06,0,0,0,,,,
7.86E+06,0,0,0,,,,
8.39E+06,0,0,0,,,,
9.44E+06,0,0,0,,,,
1.05E+07,0,0,0,,,,
1.15E+07,0,0,0,,,,
1.26E+07,0,0,0,,,,
1.36E+07,0,0,0,,,,
1.47E+07,0,0,0,,,,
1.57E+07,0,0,0,,,,
1.68E+07,0,0,0,,,,
1.89E+07,0,0,0,,,,
2.10E+07,0,0,0,,,,
2.31E+07,0,0,0,,,,
2.52E+07,0,0,0,,,,
2.73E+07,0,0,0,,,,
2.94E+07,0,0,0,,,,
3.15E+07,0,0,0,,,,
3.36E+07,0,0,0,,,,
3.77E+07,0,0,0,,,,
4.19E+07,0,0,0,,,,
4.61E+07,0,0,0,,,,
5.03E+07,0,0,0,,,,
5.45E+07,0,0,0,,,,
5.87E+07,0,0,0,,,,