X Lag Time,Record 1: JJ1_10mg_300rpm_10-00min_ST_No3_230802 1,Record 2: JJ1_10mg_300rpm_10-00min_ST_No3_230802 2,Record 3: JJ1_10mg_300rpm_10-00min_ST_No3_230802 3,X Intensity,Record 1: JJ1_10mg_300rpm_10-00min_ST_No3_230802 1,Record 2: JJ1_10mg_300rpm_10-00min_ST_No3_230802 2,Record 3: JJ1_10mg_300rpm_10-00min_ST_No3_230802 3
0.5,0.861,0.858,0.863,0.4,0,0,0
1,0.852,0.853,0.855,0.463,0,0,0
1.5,0.841,0.838,0.844,0.536,0,0,0
2,0.832,0.827,0.836,0.621,0,0,0
2.5,0.823,0.815,0.823,0.719,0,0,0
3,0.814,0.81,0.812,0.833,0,0,0
3.5,0.803,0.799,0.809,0.965,0,0,0
4,0.797,0.791,0.799,1.12,0,0,0
4.5,0.789,0.78,0.788,1.29,0,0,0
5.5,0.771,0.761,0.772,1.5,0,0,0
6.5,0.753,0.745,0.752,1.74,0,0,0
7.5,0.74,0.727,0.739,2.01,0,0,0
8.5,0.723,0.71,0.724,2.33,0,0,0
9.5,0.71,0.698,0.708,2.7,0,0,0
10.5,0.698,0.684,0.692,3.12,0,0,0
11.5,0.682,0.671,0.681,3.62,0,0,0
12.5,0.671,0.657,0.669,4.19,0,0,0
14.5,0.647,0.631,0.642,4.85,0,0,0
16.5,0.624,0.605,0.619,5.61,0,0,0
18.5,0.603,0.584,0.598,6.5,0,0,0
20.5,0.583,0.563,0.577,7.53,0,0,0
22.5,0.564,0.544,0.559,8.72,1.49,0.227,0.952
24.5,0.546,0.525,0.541,10.1,5.17,4.31,4.59
26.5,0.53,0.507,0.524,11.7,9.23,9.77,9.11
28.5,0.516,0.491,0.506,13.5,11.5,13,11.8
32.5,0.488,0.46,0.478,15.7,10.8,12.2,11.2
36.5,0.462,0.434,0.452,18.2,7.49,7.92,7.58
40.5,0.439,0.411,0.429,21,3.4,2.89,2.97
44.5,0.42,0.39,0.41,24.4,0.57,0,0.0493
48.5,0.402,0.372,0.391,28.2,0,0,0
52.5,0.386,0.355,0.375,32.7,0,0,0
56.5,0.374,0.341,0.36,37.8,0,0,0
60.5,0.361,0.328,0.347,43.8,0,0,0
68.5,0.339,0.306,0.325,50.7,0,0,0
76.5,0.322,0.288,0.306,58.8,0,0,0
84.5,0.306,0.272,0.293,68.1,0,0,0
92.5,0.293,0.26,0.28,78.8,0,0,0
101,0.284,0.25,0.269,91.3,0,0,0
109,0.275,0.242,0.26,106,0,0,0
117,0.268,0.234,0.253,122,0,0,0
125,0.262,0.228,0.247,142,0,0,0
141,0.252,0.217,0.236,164,0,0,0
157,0.244,0.209,0.229,190,0,0,0
173,0.237,0.201,0.222,220,0,0,0
189,0.23,0.196,0.215,255,0.506,0.488,0
205,0.225,0.191,0.21,295,1.85,1.84,0.632
221,0.221,0.185,0.205,342,3.74,3.73,2.36
237,0.217,0.182,0.202,396,5.6,5.58,4.69
253,0.213,0.178,0.198,459,6.93,6.89,6.84
285,0.206,0.171,0.191,531,7.38,7.36,8.16
317,0.2,0.166,0.185,615,6.88,6.94,8.34
349,0.192,0.16,0.179,712,5.58,5.79,7.39
381,0.187,0.154,0.173,825,3.84,4.21,5.65
413,0.181,0.149,0.168,955,2.1,2.57,3.6
445,0.177,0.144,0.162,1.11E+03,0.778,1.21,1.76
477,0.171,0.14,0.156,1.28E+03,0.0986,0.339,0.514
509,0.168,0.135,0.151,1.48E+03,0,0,0
573,0.158,0.126,0.142,1.72E+03,0,0,0
637,0.149,0.118,0.135,1.99E+03,0,0,0
701,0.142,0.109,0.126,2.30E+03,0,0,0
765,0.135,0.102,0.117,2.67E+03,0,0,0
829,0.129,0.0955,0.11,3.09E+03,0,0,0
893,0.121,0.0899,0.105,3.58E+03,0.082,0.117,0
957,0.114,0.0828,0.0974,4.15E+03,0.632,0.424,0.158
1.02E+03,0.108,0.0773,0.0914,4.80E+03,1.63,0.865,0.543
1.15E+03,0.0984,0.0696,0.0805,5.56E+03,2.77,1.3,1.04
1.28E+03,0.0899,0.0611,0.0712,6.44E+03,0,0,0
1.40E+03,0.0815,0.0547,0.0636,7.46E+03,0,0,0
1.53E+03,0.0749,0.0491,0.0566,8.63E+03,0,0,0
1.66E+03,0.0679,0.0439,0.051,,,,
1.79E+03,0.0632,0.0399,0.0458,,,,
1.92E+03,0.0589,0.0367,0.0418,,,,
2.04E+03,0.0558,0.0338,0.0385,,,,
2.30E+03,0.049,0.0291,0.0324,,,,
2.56E+03,0.0415,0.0238,0.0279,,,,
2.81E+03,0.0371,0.0197,0.0248,,,,
3.07E+03,0.0332,0.018,0.0211,,,,
3.32E+03,0.0294,0.0166,0.0185,,,,
3.58E+03,0.0271,0.0153,0.0171,,,,
3.84E+03,0.0251,0.0137,0.0154,,,,
4.09E+03,0.0236,0.0127,0.0146,,,,
4.60E+03,0.0188,0.00876,0.013,,,,
5.12E+03,0.0173,0.00857,0.0108,,,,
5.63E+03,0.0172,0.00639,0.00995,,,,
6.14E+03,0.015,0.00537,0.00817,,,,
6.65E+03,0.0129,0.00456,0.00498,,,,
7.16E+03,0.00953,0.00429,0.00355,,,,
7.68E+03,0.00846,0.00292,0.00438,,,,
8.19E+03,0.00825,0.0023,0.00344,,,,
9.21E+03,0.0101,0.00172,0.00256,,,,
1.02E+04,0.0117,0.0023,0.00293,,,,
1.13E+04,0.0109,0.00224,0.00368,,,,
1.23E+04,0.0116,0.0033,0.00501,,,,
1.33E+04,0.00878,0.00411,0.00465,,,,
1.43E+04,0.00852,0.00536,0.00525,,,,
1.54E+04,0.00904,0.00173,0.00453,,,,
1.64E+04,0.00781,0.00251,0.00476,,,,
1.84E+04,0.00665,0.00308,0.00471,,,,
2.05E+04,0.00536,0.00053,0.00363,,,,
2.25E+04,0.00402,0.0013,0.00344,,,,
2.46E+04,0.00762,0.00179,0.00331,,,,
2.66E+04,0.00839,0.000889,0.00221,,,,
2.87E+04,0.0052,0.000151,0.00289,,,,
3.07E+04,0.00297,0.000525,0.0032,,,,
3.28E+04,0.00425,0.000497,0.0029,,,,
3.69E+04,0.00422,0.000692,0.00294,,,,
4.10E+04,0.00411,0.0011,0.0041,,,,
4.51E+04,0.00324,0.00287,0.00126,,,,
4.91E+04,0.00136,0.00197,0.00212,,,,
5.32E+04,0.00359,0.000551,0.000629,,,,
5.73E+04,0.00339,0.00151,0.00207,,,,
6.14E+04,0.00338,0.00103,0.00361,,,,
6.55E+04,0.00558,0.00087,0.00257,,,,
7.37E+04,0.00239,0.00197,0.0019,,,,
8.19E+04,0.00202,0.00188,0.00198,,,,
9.01E+04,0.0015,0.000268,0.00274,,,,
9.83E+04,0.00383,0.00045,0.00141,,,,
1.06E+05,0.00234,0.00154,0.00304,,,,
1.15E+05,0.00134,0.000223,0.00234,,,,
1.23E+05,0.00208,0.00149,0.00255,,,,
1.31E+05,0.000662,0.00204,0.000943,,,,
1.47E+05,0.000951,0.00165,0.000441,,,,
1.64E+05,0.00078,0.000637,0.000744,,,,
1.80E+05,0.00104,0.0014,0.00155,,,,
1.97E+05,0.000319,0.000466,0.00187,,,,
2.13E+05,0.00195,0.00018,0.00351,,,,
2.29E+05,0.00272,0.000196,0.00214,,,,
2.46E+05,0.00282,0.000441,0.0019,,,,
2.62E+05,0.00345,0.000355,0.000948,,,,
2.95E+05,8.72E-05,0.00202,0.00132,,,,
3.28E+05,0.00102,0.000893,0.000802,,,,
3.60E+05,0.00212,0.000448,0.000408,,,,
3.93E+05,0.00149,0.000739,0.000247,,,,
4.26E+05,0.00207,0.000524,0.00112,,,,
4.59E+05,0.000827,0.000246,0.00128,,,,
4.92E+05,0.00172,0.000582,0.00116,,,,
5.24E+05,0.00268,0.000235,0.000614,,,,
5.90E+05,0.000957,0.000413,0.00093,,,,
6.55E+05,0.00108,1.70E-05,0.00198,,,,
7.21E+05,0.00192,0.00159,0.0015,,,,
7.86E+05,0.000231,0.000296,0.000767,,,,
8.52E+05,0.00036,0.000118,0.000479,,,,
9.18E+05,0.00088,0.000458,0.000587,,,,
9.83E+05,0.00181,0,0.000795,,,,
1.05E+06,0.00202,0.00234,0.00134,,,,
1.18E+06,0.00338,0.000162,0.00176,,,,
1.31E+06,0.00287,0,0.00175,,,,
1.44E+06,0.0032,0,0.00127,,,,
1.57E+06,0.00329,0.000423,0.000445,,,,
1.70E+06,0.00341,0.0016,0.000125,,,,
1.84E+06,0.00151,0.00252,0.00144,,,,
1.97E+06,0.00514,0.00149,0.00138,,,,
2.10E+06,0,0,0,,,,
2.36E+06,0,0,0,,,,
2.62E+06,0,0,0,,,,
2.88E+06,0,0,0,,,,
3.15E+06,0,0,0,,,,
3.41E+06,0,0,0,,,,
3.67E+06,0,0,0,,,,
3.93E+06,0,0,0,,,,
4.19E+06,0,0,0,,,,
4.72E+06,0,0,0,,,,
5.24E+06,0,0,0,,,,
5.77E+06,0,0,0,,,,
6.29E+06,0,0,0,,,,
6.82E+06,0,0,0,,,,
7.34E+06,0,0,0,,,,
7.86E+06,0,0,0,,,,
8.39E+06,0,0,0,,,,
9.44E+06,0,0,0,,,,
1.05E+07,0,0,0,,,,
1.15E+07,0,0,0,,,,
1.26E+07,0,0,0,,,,
1.36E+07,0,0,0,,,,
1.47E+07,0,0,0,,,,
1.57E+07,0,0,0,,,,
1.68E+07,0,0,0,,,,
1.89E+07,0,0,0,,,,
2.10E+07,0,0,0,,,,
2.31E+07,0,0,0,,,,
2.52E+07,0,0,0,,,,
2.73E+07,0,0,0,,,,
2.94E+07,0,0,0,,,,
3.15E+07,0,0,0,,,,
3.36E+07,0,0,0,,,,
3.77E+07,0,0,0,,,,
4.19E+07,0,0,0,,,,
4.61E+07,0,0,0,,,,
5.03E+07,0,0,0,,,,
5.45E+07,0,0,0,,,,
5.87E+07,0,0,0,,,,